timestamp [s];actual_current [A];target_current [A];motor_torque [N.m];paddle_pos [deg];paddle_speed [deg/s];Compensate gravity;Compensate dry friction);Compensate viscous friction;paddle_pos_filt [deg];paddle_speed_filt [deg/s];Wall;Virtual Spring;Virtual Damping;Cuttoff Frequnecy Angle;Cuttoff Frequnecy Speed;emg_signal;led_0 [0.0-1.0];led_1 [0.0-1.0];led_2 [0.0-1.0];led_3 [0.0-1.0]
321.1789;-0.0239585191;-0.02370407991;0.0008201611927;-14.98828125;0;1;1;1;0.01171875;7.006492322e-45;1;0.009999999776;9.999999747e-05;50;50;1.218559265;0;0;0;0
321.17995;-0.0239585191;-0.02370407991;0.0008201611927;-14.98828125;0;1;1;1;0.01171875;7.006492322e-45;1;0.009999999776;9.999999747e-05;50;50;1.220390677;0;0;0;0
321.181;-0.0239585191;-0.02370407991;0.0008201611927;-14.98828125;0;1;1;1;0.01171875;7.006492322e-45;1;0.009999999776;9.999999747e-05;50;50;1.219169736;0;0;0;0
321.18205;-0.0239585191;-0.02370407991;0.0008201611927;-14.98828125;0;1;1;1;0.01171875;7.006492322e-45;1;0.009999999776;9.999999747e-05;50;50;1.227106214;0;0;0;0
321.1831;-0.0239585191;-0.02370407991;0.0008201611927;-14.98828125;0;1;1;1;0.01171875;7.006492322e-45;1;0.009999999776;9.999999747e-05;50;50;1.2124542;0;0;0;0
321.1838;-0.0239585191;-0.02370407991;0.0008201611927;-14.98828125;0;1;1;1;0.01171875;7.006492322e-45;1;0.009999999776;9.999999747e-05;50;50;1.275335789;0;0;0;0
321.18485;-0.0239585191;-0.02370407991;0.0008201611927;-14.98828125;0;1;1;1;0.01171875;7.006492322e-45;1;0.009999999776;9.999999747e-05;50;50;1.2448107;0;0;0;0
321.1859;-0.0239585191;-0.02370407991;0.0008201611927;-14.98828125;0;1;1;1;0.01171875;7.006492322e-45;1;0.009999999776;9.999999747e-05;50;50;1.22344327;0;0;0;0
321.18695;-0.0239585191;-0.02370407991;0.0008201611927;-14.98828125;0;1;1;1;0.01171875;7.006492322e-45;1;0.009999999776;9.999999747e-05;50;50;1.229548216;0;0;0;0
321.188;-0.0239585191;-0.02370407991;0.0008201611927;-14.98828125;0;1;1;1;0.01171875;7.006492322e-45;1;0.009999999776;9.999999747e-05;50;50;1.220390677;0;0;0;0
321.18905;-0.0239585191;-0.02370407991;0.0008201611927;-14.98828125;0;1;1;1;0.01171875;7.006492322e-45;1;0.009999999776;9.999999747e-05;50;50;1.194749713;0;0;0;0
321.1901;-0.0239585191;-0.02370407991;0.0008201611927;-14.98828125;0;1;1;1;0.01171875;7.006492322e-45;1;0.009999999776;9.999999747e-05;50;50;1.178876638;0;0;0;0
321.1908;-0.0239585191;-0.02370407991;0.0008201611927;-14.98828125;0;1;1;1;0.01171875;7.006492322e-45;1;0.009999999776;9.999999747e-05;50;50;1.14896214;0;0;0;0
321.19185;-0.0239585191;-0.02370407991;0.0008201611927;-14.98828125;0;1;1;1;0.01171875;7.006492322e-45;1;0.009999999776;9.999999747e-05;50;50;1.193528652;0;0;0;0
321.1929;-0.0239585191;-0.02370407991;0.0008201611927;-14.98828125;0;1;1;1;0.01171875;7.006492322e-45;1;0.009999999776;9.999999747e-05;50;50;1.220390677;0;0;0;0
321.19395;-0.0239585191;-0.02370407991;0.0008201611927;-14.98828125;0;1;1;1;0.01171875;7.006492322e-45;1;0.009999999776;9.999999747e-05;50;50;1.210622668;0;0;0;0
321.195;-0.0239585191;-0.02370407991;0.0008201611927;-14.98828125;0;1;1;1;0.01171875;7.006492322e-45;1;0.009999999776;9.999999747e-05;50;50;1.252136827;0;0;0;0
321.19605;-0.0239585191;-0.02370407991;0.0008201611927;-14.98828125;0;1;1;1;0.01171875;7.006492322e-45;1;0.009999999776;9.999999747e-05;50;50;1.22344327;0;0;0;0
321.19675;-0.0239585191;-0.02370407991;0.0008201611927;-14.98828125;0;1;1;1;0.01171875;7.006492322e-45;1;0.009999999776;9.999999747e-05;50;50;1.19108665;0;0;0;0
321.1978;-0.0239585191;-0.02370407991;0.0008201611927;-14.98828125;0;1;1;1;0.01171875;7.006492322e-45;1;0.009999999776;9.999999747e-05;50;50;1.20207572;0;0;0;0
321.19885;-0.0239585191;-0.02370407991;0.0008201611927;-14.98828125;0;1;1;1;0.01171875;7.006492322e-45;1;0.009999999776;9.999999747e-05;50;50;1.195360184;0;0;0;0
321.1999;-0.0239585191;-0.02370407991;0.0008201611927;-14.98828125;0;1;1;1;0.01171875;7.006492322e-45;1;0.009999999776;9.999999747e-05;50;50;1.196581244;0;0;0;0
321.20095;-0.0239585191;-0.02370407991;0.0008201611927;-14.98828125;0;1;1;1;0.01171875;7.006492322e-45;1;0.009999999776;9.999999747e-05;50;50;1.20207572;0;0;0;0
321.202;-0.0239585191;-0.02370407991;0.0008201611927;-14.98828125;0;1;1;1;0.01171875;7.006492322e-45;1;0.009999999776;9.999999747e-05;50;50;1.225885272;0;0;0;0
321.20305;-0.0239585191;-0.02370407991;0.0008201611927;-14.98828125;0;1;1;1;0.01171875;7.006492322e-45;1;0.009999999776;9.999999747e-05;50;50;1.236263752;0;0;0;0
321.20375;-0.0239585191;-0.02370407991;0.0008201611927;-14.98828125;0;1;1;1;0.01171875;7.006492322e-45;1;0.009999999776;9.999999747e-05;50;50;1.217338204;0;0;0;0
321.2048;-0.0239585191;-0.02370407991;0.0008201611927;-14.98828125;0;1;1;1;0.01171875;7.006492322e-45;1;0.009999999776;9.999999747e-05;50;50;1.198412657;0;0;0;0
321.20585;-0.0239585191;-0.02370407991;0.0008201611927;-14.98828125;0;1;1;1;0.01171875;7.006492322e-45;1;0.009999999776;9.999999747e-05;50;50;1.203296661;0;0;0;0
321.2069;-0.0239585191;-0.02370407991;0.0008201611927;-14.98828125;0;1;1;1;0.01171875;7.006492322e-45;1;0.009999999776;9.999999747e-05;50;50;1.184371233;0;0;0;0
321.20795;-0.0239585191;-0.02370407991;0.0008201611927;-14.98828125;0;1;1;1;0.01171875;7.006492322e-45;1;0.009999999776;9.999999747e-05;50;50;1.176434636;0;0;0;0
321.209;-0.0239585191;-0.02370407991;0.0008201611927;-14.98828125;0;1;1;1;0.01171875;7.006492322e-45;1;0.009999999776;9.999999747e-05;50;50;1.169108629;0;0;0;0
321.21005;-0.0239585191;-0.02370407991;0.0008201611927;-14.98828125;0;1;1;1;0.01171875;7.006492322e-45;1;0.009999999776;9.999999747e-05;50;50;1.152014613;0;0;0;0
321.21075;-0.0239585191;-0.02370407991;0.0008201611927;-14.98828125;0;1;1;1;0.01171875;7.006492322e-45;1;0.009999999776;9.999999747e-05;50;50;1.231379747;0;0;0;0
321.2118;-0.0239585191;-0.02370407991;0.0008201611927;-14.98828125;0;1;1;1;0.01171875;7.006492322e-45;1;0.009999999776;9.999999747e-05;50;50;1.175213695;0;0;0;0
321.21285;-0.0239585191;-0.02370407991;0.0008201611927;-14.98828125;0;1;1;1;0.01171875;7.006492322e-45;1;0.009999999776;9.999999747e-05;50;50;1.207570195;0;0;0;0
321.2139;-0.0239585191;-0.02370407991;0.0008201611927;-14.98828125;0;1;1;1;0.01171875;7.006492322e-45;1;0.009999999776;9.999999747e-05;50;50;1.203907251;0;0;0;0
321.21495;-0.0239585191;-0.02370407991;0.0008201611927;-14.98828125;0;1;1;1;0.01171875;7.006492322e-45;1;0.009999999776;9.999999747e-05;50;50;1.199633718;0;0;0;0
321.216;-0.0239585191;-0.02370407991;0.0008201611927;-14.98828125;0;1;1;1;0.01171875;7.006492322e-45;1;0.009999999776;9.999999747e-05;50;50;1.190476179;0;0;0;0
321.21705;-0.0239585191;-0.02370407991;0.0008201611927;-14.98828125;0;1;1;1;0.01171875;7.006492322e-45;1;0.009999999776;9.999999747e-05;50;50;1.196581244;0;0;0;0
321.21775;-0.0239585191;-0.02370407991;0.0008201611927;-14.98828125;0;1;1;1;0.01171875;7.006492322e-45;1;0.009999999776;9.999999747e-05;50;50;1.2448107;0;0;0;0
321.2188;-0.0239585191;-0.02370407991;0.0008201611927;-14.98828125;0;1;1;1;0.01171875;7.006492322e-45;1;0.009999999776;9.999999747e-05;50;50;1.241147757;0;0;0;0
321.21985;-0.0239585191;-0.02370407991;0.0008201611927;-14.98828125;0;1;1;1;0.01171875;7.006492322e-45;1;0.009999999776;9.999999747e-05;50;50;1.280219793;0;0;0;0
321.2209;-0.0239585191;-0.02370407991;0.0008201611927;-14.98828125;0;1;1;1;0.01171875;7.006492322e-45;1;0.009999999776;9.999999747e-05;50;50;1.239316225;0;0;0;0
321.22195;-0.0239585191;-0.02370407991;0.0008201611927;-14.98828125;0;1;1;1;0.01171875;7.006492322e-45;1;0.009999999776;9.999999747e-05;50;50;1.165445685;0;0;0;0
321.223;-0.0239585191;-0.02370407991;0.0008201611927;-14.98828125;0;1;1;1;0.01171875;7.006492322e-45;1;0.009999999776;9.999999747e-05;50;50;1.237484694;0;0;0;0
321.2237;-0.0239585191;-0.02370407991;0.0008201611927;-14.98828125;0;1;1;1;0.01171875;7.006492322e-45;1;0.009999999776;9.999999747e-05;50;50;1.189255238;0;0;0;0
321.22475;-0.0239585191;-0.02370407991;0.0008201611927;-14.98828125;0;1;1;1;0.01171875;7.006492322e-45;1;0.009999999776;9.999999747e-05;50;50;1.183760643;0;0;0;0
321.2258;-0.0239585191;-0.02370407991;0.0008201611927;-14.98828125;0;1;1;1;0.01171875;7.006492322e-45;1;0.009999999776;9.999999747e-05;50;50;1.194139242;0;0;0;0
321.22685;-0.0239585191;-0.02370407991;0.0008201611927;-14.98828125;0;1;1;1;0.01171875;7.006492322e-45;1;0.009999999776;9.999999747e-05;50;50;1.182539701;0;0;0;0
321.2279;-0.0239585191;-0.02370407991;0.0008201611927;-14.98828125;0;1;1;1;0.01171875;7.006492322e-45;1;0.009999999776;9.999999747e-05;50;50;1.205128193;0;0;0;0
321.22895;-0.0239585191;-0.02370407991;0.0008201611927;-14.98828125;0;1;1;1;0.01171875;7.006492322e-45;1;0.009999999776;9.999999747e-05;50;50;1.224664211;0;0;0;0
321.23;-0.0239585191;-0.02370407991;0.0008201611927;-14.98828125;0;1;1;1;0.01171875;7.006492322e-45;1;0.009999999776;9.999999747e-05;50;50;1.231379747;0;0;0;0
321.2307;-0.0239585191;-0.02370407991;0.0008201611927;-14.98828125;0;1;1;1;0.01171875;7.006492322e-45;1;0.009999999776;9.999999747e-05;50;50;1.189255238;0;0;0;0
321.23175;-0.0239585191;-0.02370407991;0.0008201611927;-14.98828125;0;1;1;1;0.01171875;7.006492322e-45;1;0.009999999776;9.999999747e-05;50;50;1.188034177;0;0;0;0
321.2328;-0.0239585191;-0.02370407991;0.0008201611927;-14.98828125;0;1;1;1;0.01171875;7.006492322e-45;1;0.009999999776;9.999999747e-05;50;50;1.19108665;0;0;0;0
321.23385;-0.0239585191;-0.02370407991;0.0008201611927;-14.98828125;0;1;1;1;0.01171875;7.006492322e-45;1;0.009999999776;9.999999747e-05;50;50;1.176434636;0;0;0;0
321.2349;-0.0239585191;-0.02370407991;0.0008201611927;-14.98828125;0;1;1;1;0.01171875;7.006492322e-45;1;0.009999999776;9.999999747e-05;50;50;1.180097699;0;0;0;0
321.23595;-0.0239585191;-0.02370407991;0.0008201611927;-14.98828125;0;1;1;1;0.01171875;7.006492322e-45;1;0.009999999776;9.999999747e-05;50;50;1.181318641;0;0;0;0
321.237;-0.0239585191;-0.02370407991;0.0008201611927;-14.98828125;0;1;1;1;0.01171875;7.006492322e-45;1;0.009999999776;9.999999747e-05;50;50;1.196581244;0;0;0;0
321.2377;-0.0239585191;-0.02370407991;0.0008201611927;-14.98828125;0;1;1;1;0.01171875;7.006492322e-45;1;0.009999999776;9.999999747e-05;50;50;1.252747297;0;0;0;0
321.23875;-0.0239585191;-0.02370407991;0.0008201611927;-14.98828125;0;1;1;1;0.01171875;7.006492322e-45;1;0.009999999776;9.999999747e-05;50;50;1.252747297;0;0;0;0
321.2398;-0.0239585191;-0.02370407991;0.0008201611927;-14.98828125;0;1;1;1;0.01171875;7.006492322e-45;1;0.009999999776;9.999999747e-05;50;50;1.241147757;0;0;0;0
321.24085;-0.0239585191;-0.02370407991;0.0008201611927;-14.98828125;0;1;1;1;0.01171875;7.006492322e-45;1;0.009999999776;9.999999747e-05;50;50;1.23443222;0;0;0;0
321.2419;-0.0239585191;-0.02370407991;0.0008201611927;-14.98828125;0;1;1;1;0.01171875;7.006492322e-45;1;0.009999999776;9.999999747e-05;50;50;1.230158687;0;0;0;0
321.24295;-0.0239585191;-0.02370407991;0.0008201611927;-14.98828125;0;1;1;1;0.01171875;7.006492322e-45;1;0.009999999776;9.999999747e-05;50;50;1.210622668;0;0;0;0
321.244;-0.0239585191;-0.02370407991;0.0008201611927;-14.98828125;0;1;1;1;0.01171875;7.006492322e-45;1;0.009999999776;9.999999747e-05;50;50;1.193528652;0;0;0;0
321.2447;-0.0239585191;-0.02370407991;0.0008201611927;-14.98828125;0;1;1;1;0.01171875;7.006492322e-45;1;0.009999999776;9.999999747e-05;50;50;1.233211279;0;0;0;0
321.24575;-0.0239585191;-0.02370407991;0.0008201611927;-14.98828125;0;1;1;1;0.01171875;7.006492322e-45;1;0.009999999776;9.999999747e-05;50;50;1.23382175;0;0;0;0
321.2468;-0.0239585191;-0.02370407991;0.0008201611927;-14.98828125;0;1;1;1;0.01171875;7.006492322e-45;1;0.009999999776;9.999999747e-05;50;50;1.285103798;0;0;0;0
321.24785;-0.0239585191;-0.02370407991;0.0008201611927;-14.98828125;0;1;1;1;0.01171875;7.006492322e-45;1;0.009999999776;9.999999747e-05;50;50;1.254578829;0;0;0;0
321.2489;-0.0239585191;-0.02370407991;0.0008201611927;-14.98828125;0;1;1;1;0.01171875;7.006492322e-45;1;0.009999999776;9.999999747e-05;50;50;1.224053741;0;0;0;0
321.24995;-0.0239585191;-0.02370407991;0.0008201611927;-14.98828125;0;1;1;1;0.01171875;7.006492322e-45;1;0.009999999776;9.999999747e-05;50;50;1.205738664;0;0;0;0
321.25065;-0.0239585191;-0.02370407991;0.0008201611927;-14.98828125;0;1;1;1;0.01171875;7.006492322e-45;1;0.009999999776;9.999999747e-05;50;50;1.167887688;0;0;0;0
321.2517;-0.0239585191;-0.02370407991;0.0008201611927;-14.98828125;0;1;1;1;0.01171875;7.006492322e-45;1;0.009999999776;9.999999747e-05;50;50;1.163614154;0;0;0;0
321.25275;-0.0239585191;-0.02370407991;0.0008201611927;-14.98828125;0;1;1;1;0.01171875;7.006492322e-45;1;0.009999999776;9.999999747e-05;50;50;1.175213695;0;0;0;0
321.2538;-0.0239585191;-0.02370407991;0.0008201611927;-14.98828125;0;1;1;1;0.01171875;7.006492322e-45;1;0.009999999776;9.999999747e-05;50;50;1.199633718;0;0;0;0
321.25485;-0.0239585191;-0.02370407991;0.0008201611927;-14.98828125;0;1;1;1;0.01171875;7.006492322e-45;1;0.009999999776;9.999999747e-05;50;50;1.239316225;0;0;0;0
321.2559;-0.0239585191;-0.02370407991;0.0008201611927;-14.98828125;0;1;1;1;0.01171875;7.006492322e-45;1;0.009999999776;9.999999747e-05;50;50;1.232600689;0;0;0;0
321.25695;-0.0239585191;-0.02370407991;0.0008201611927;-14.98828125;0;1;1;1;0.01171875;7.006492322e-45;1;0.009999999776;9.999999747e-05;50;50;1.285103798;0;0;0;0
321.25765;-0.0239585191;-0.02370407991;0.0008201611927;-14.98828125;0;1;1;1;0.01171875;7.006492322e-45;1;0.009999999776;9.999999747e-05;50;50;1.217338204;0;0;0;0
321.2587;-0.0239585191;-0.02370407991;0.0008201611927;-14.98828125;0;1;1;1;0.01171875;7.006492322e-45;1;0.009999999776;9.999999747e-05;50;50;1.219169736;0;0;0;0
321.25975;-0.0239585191;-0.02370407991;0.0008201611927;-14.98828125;0;1;1;1;0.01171875;7.006492322e-45;1;0.009999999776;9.999999747e-05;50;50;1.213064671;0;0;0;0
321.2608;-0.0239585191;-0.02370407991;0.0008201611927;-14.98828125;0;1;1;1;0.01171875;7.006492322e-45;1;0.009999999776;9.999999747e-05;50;50;1.194139242;0;0;0;0
321.26185;-0.0239585191;-0.02370407991;0.0008201611927;-14.98828125;0;1;1;1;0.01171875;7.006492322e-45;1;0.009999999776;9.999999747e-05;50;50;1.181929231;0;0;0;0
321.2629;-0.0239585191;-0.02370407991;0.0008201611927;-14.98828125;0;1;1;1;0.01171875;7.006492322e-45;1;0.009999999776;9.999999747e-05;50;50;1.181929231;0;0;0;0
321.26395;-0.0239585191;-0.02370407991;0.0008201611927;-14.98828125;0;1;1;1;0.01171875;7.006492322e-45;1;0.009999999776;9.999999747e-05;50;50;1.199633718;0;0;0;0
321.26465;-0.0239585191;-0.02370407991;0.0008201611927;-14.98828125;0;1;1;1;0.01171875;7.006492322e-45;1;0.009999999776;9.999999747e-05;50;50;1.225885272;0;0;0;0
321.2657;-0.0239585191;-0.02370407991;0.0008201611927;-14.98828125;0;1;1;1;0.01171875;7.006492322e-45;1;0.009999999776;9.999999747e-05;50;50;1.231990218;0;0;0;0
321.26675;-0.0239585191;-0.02370407991;0.0008201611927;-14.98828125;0;1;1;1;0.01171875;7.006492322e-45;1;0.009999999776;9.999999747e-05;50;50;1.210622668;0;0;0;0
321.2678;-0.0239585191;-0.02370407991;0.0008201611927;-14.98828125;0;1;1;1;0.01171875;7.006492322e-45;1;0.009999999776;9.999999747e-05;50;50;1.198412657;0;0;0;0
321.26885;-0.0239585191;-0.02370407991;0.0008201611927;-14.98828125;0;1;1;1;0.01171875;7.006492322e-45;1;0.009999999776;9.999999747e-05;50;50;1.188644648;0;0;0;0
321.2699;-0.0239585191;-0.02370407991;0.0008201611927;-14.98828125;0;1;1;1;0.01171875;7.006492322e-45;1;0.009999999776;9.999999747e-05;50;50;1.175824165;0;0;0;0
321.27095;-0.0239585191;-0.02370407991;0.0008201611927;-14.98828125;0;1;1;1;0.01171875;7.006492322e-45;1;0.009999999776;9.999999747e-05;50;50;1.168498158;0;0;0;0
321.27165;-0.0239585191;-0.02370407991;0.0008201611927;-14.98828125;0;1;1;1;0.01171875;7.006492322e-45;1;0.009999999776;9.999999747e-05;50;50;1.166056156;0;0;0;0
321.2727;-0.0239585191;-0.02370407991;0.0008201611927;-14.98828125;0;1;1;1;0.01171875;7.006492322e-45;1;0.009999999776;9.999999747e-05;50;50;1.275335789;0;0;0;0
321.27375;-0.0239585191;-0.02370407991;0.0008201611927;-14.98828125;0;1;1;1;0.01171875;7.006492322e-45;1;0.009999999776;9.999999747e-05;50;50;1.260073304;0;0;0;0
321.2748;-0.0239585191;-0.02370407991;0.0008201611927;-14.98828125;0;1;1;1;0.01171875;7.006492322e-45;1;0.009999999776;9.999999747e-05;50;50;1.219780207;0;0;0;0
321.27585;-0.0239585191;-0.02370407991;0.0008201611927;-14.98828125;0;1;1;1;0.01171875;7.006492322e-45;1;0.009999999776;9.999999747e-05;50;50;1.217338204;0;0;0;0
321.2769;-0.0239585191;-0.02370407991;0.0008201611927;-14.98828125;0;1;1;1;0.01171875;7.006492322e-45;1;0.009999999776;9.999999747e-05;50;50;1.213675261;0;0;0;0
321.2776;-0.0239585191;-0.02370407991;0.0008201611927;-14.98828125;0;1;1;1;0.01171875;7.006492322e-45;1;0.009999999776;9.999999747e-05;50;50;1.193528652;0;0;0;0
321.27865;-0.0239585191;-0.02370407991;0.0008201611927;-14.98828125;0;1;1;1;0.01171875;7.006492322e-45;1;0.009999999776;9.999999747e-05;50;50;1.224053741;0;0;0;0
321.2797;-0.0239585191;-0.02370407991;0.0008201611927;-14.98828125;0;1;1;1;0.01171875;7.006492322e-45;1;0.009999999776;9.999999747e-05;50;50;1.188644648;0;0;0;0
321.28075;-0.0239585191;-0.02370407991;0.0008201611927;-14.98828125;0;1;1;1;0.01171875;7.006492322e-45;1;0.009999999776;9.999999747e-05;50;50;1.221001267;0;0;0;0
321.2818;-0.0239585191;-0.02370407991;0.0008201611927;-14.98828125;0;1;1;1;0.01171875;7.006492322e-45;1;0.009999999776;9.999999747e-05;50;50;1.253968358;0;0;0;0
321.28285;-0.0239585191;-0.02370407991;0.0008201611927;-14.98828125;0;1;1;1;0.01171875;7.006492322e-45;1;0.009999999776;9.999999747e-05;50;50;1.261294365;0;0;0;0
321.2839;-0.0239585191;-0.02370407991;0.0008201611927;-14.98828125;0;1;1;1;0.01171875;7.006492322e-45;1;0.009999999776;9.999999747e-05;50;50;1.280830383;0;0;0;0
321.2846;-0.0239585191;-0.02370407991;0.0008201611927;-14.98828125;0;1;1;1;0.01171875;7.006492322e-45;1;0.009999999776;9.999999747e-05;50;50;1.201465249;0;0;0;0
321.28565;-0.0239585191;-0.02370407991;0.0008201611927;-14.98828125;0;1;1;1;0.01171875;7.006492322e-45;1;0.009999999776;9.999999747e-05;50;50;1.20207572;0;0;0;0
321.2867;-0.0239585191;-0.02370407991;0.0008201611927;-14.98828125;0;1;1;1;0.01171875;7.006492322e-45;1;0.009999999776;9.999999747e-05;50;50;1.192918181;0;0;0;0
321.28775;-0.0239585191;-0.02370407991;0.0008201611927;-14.98828125;0;1;1;1;0.01171875;7.006492322e-45;1;0.009999999776;9.999999747e-05;50;50;1.178266168;0;0;0;0
321.2888;-0.0239585191;-0.02370407991;0.0008201611927;-14.98828125;0;1;1;1;0.01171875;7.006492322e-45;1;0.009999999776;9.999999747e-05;50;50;1.166666627;0;0;0;0
321.28985;-0.0239585191;-0.02370407991;0.0008201611927;-14.98828125;0;1;1;1;0.01171875;7.006492322e-45;1;0.009999999776;9.999999747e-05;50;50;1.180097699;0;0;0;0
321.2909;-0.0239585191;-0.02370407991;0.0008201611927;-14.98828125;0;1;1;1;0.01171875;7.006492322e-45;1;0.009999999776;9.999999747e-05;50;50;1.226495743;0;0;0;0
321.2916;-0.0239585191;-0.02370407991;0.0008201611927;-14.98828125;0;1;1;1;0.01171875;7.006492322e-45;1;0.009999999776;9.999999747e-05;50;50;1.205738664;0;0;0;0
321.29265;-0.0239585191;-0.02370407991;0.0008201611927;-14.98828125;0;1;1;1;0.01171875;7.006492322e-45;1;0.009999999776;9.999999747e-05;50;50;1.213675261;0;0;0;0
321.2937;-0.0239585191;-0.02370407991;0.0008201611927;-14.98828125;0;1;1;1;0.01171875;7.006492322e-45;1;0.009999999776;9.999999747e-05;50;50;1.198412657;0;0;0;0
321.29475;-0.0239585191;-0.02370407991;0.0008201611927;-14.98828125;0;1;1;1;0.01171875;7.006492322e-45;1;0.009999999776;9.999999747e-05;50;50;1.190476179;0;0;0;0
321.2958;-0.0239585191;-0.02370407991;0.0008201611927;-14.98828125;0;1;1;1;0.01171875;7.006492322e-45;1;0.009999999776;9.999999747e-05;50;50;1.195970654;0;0;0;0
321.29685;-0.0239585191;-0.02370407991;0.0008201611927;-14.98828125;0;1;1;1;0.01171875;7.006492322e-45;1;0.009999999776;9.999999747e-05;50;50;1.202686191;0;0;0;0
321.2979;-0.0239585191;-0.02370407991;0.0008201611927;-14.98828125;0;1;1;1;0.01171875;7.006492322e-45;1;0.009999999776;9.999999747e-05;50;50;1.204517722;0;0;0;0
321.2986;-0.0239585191;-0.02370407991;0.0008201611927;-14.98828125;0;1;1;1;0.01171875;7.006492322e-45;1;0.009999999776;9.999999747e-05;50;50;1.299145341;0;0;0;0
321.29965;-0.0239585191;-0.02370407991;0.0008201611927;-14.98828125;0;1;1;1;0.01171875;7.006492322e-45;1;0.009999999776;9.999999747e-05;50;50;1.215506673;0;0;0;0
321.3007;-0.0239585191;-0.02370407991;0.0008201611927;-14.98828125;0;1;1;1;0.01171875;7.006492322e-45;1;0.009999999776;9.999999747e-05;50;50;1.248473763;0;0;0;0
321.30175;-0.0239585191;-0.02370407991;0.0008201611927;-14.98828125;0;1;1;1;0.01171875;7.006492322e-45;1;0.009999999776;9.999999747e-05;50;50;1.238705754;0;0;0;0
321.3028;-0.0239585191;-0.02370407991;0.0008201611927;-14.98828125;0;1;1;1;0.01171875;7.006492322e-45;1;0.009999999776;9.999999747e-05;50;50;1.233211279;0;0;0;0
321.30385;-0.0239585191;-0.02370407991;0.0008201611927;-14.98828125;0;1;1;1;0.01171875;7.006492322e-45;1;0.009999999776;9.999999747e-05;50;50;1.214896202;0;0;0;0
321.30455;-0.0239585191;-0.02370407991;0.0008201611927;-14.98828125;0;1;1;1;0.01171875;7.006492322e-45;1;0.009999999776;9.999999747e-05;50;50;1.173992634;0;0;0;0
321.3056;-0.0239585191;-0.02370407991;0.0008201611927;-14.98828125;0;1;1;1;0.01171875;7.006492322e-45;1;0.009999999776;9.999999747e-05;50;50;1.189255238;0;0;0;0
321.30665;-0.0239585191;-0.02370407991;0.0008201611927;-14.98828125;0;1;1;1;0.01171875;7.006492322e-45;1;0.009999999776;9.999999747e-05;50;50;1.231990218;0;0;0;0
321.3077;-0.0239585191;-0.02370407991;0.0008201611927;-14.98828125;0;1;1;1;0.01171875;7.006492322e-45;1;0.009999999776;9.999999747e-05;50;50;1.239316225;0;0;0;0
321.30875;-0.0239585191;-0.02370407991;0.0008201611927;-14.98828125;0;1;1;1;0.01171875;7.006492322e-45;1;0.009999999776;9.999999747e-05;50;50;1.251526356;0;0;0;0
321.3098;-0.0239585191;-0.02370407991;0.0008201611927;-14.98828125;0;1;1;1;0.01171875;7.006492322e-45;1;0.009999999776;9.999999747e-05;50;50;1.226495743;0;0;0;0
321.31085;-0.0239585191;-0.02370407991;0.0008201611927;-14.98828125;0;1;1;1;0.01171875;7.006492322e-45;1;0.009999999776;9.999999747e-05;50;50;1.199633718;0;0;0;0
321.31155;-0.0239585191;-0.02370407991;0.0008201611927;-14.98828125;0;1;1;1;0.01171875;7.006492322e-45;1;0.009999999776;9.999999747e-05;50;50;1.15995121;0;0;0;0
321.3126;-0.0239585191;-0.02370407991;0.0008201611927;-14.98828125;0;1;1;1;0.01171875;7.006492322e-45;1;0.009999999776;9.999999747e-05;50;50;1.15995121;0;0;0;0
321.31365;-0.0239585191;-0.02370407991;0.0008201611927;-14.98828125;0;1;1;1;0.01171875;7.006492322e-45;1;0.009999999776;9.999999747e-05;50;50;1.163003683;0;0;0;0
321.3147;-0.0239585191;-0.02370407991;0.0008201611927;-14.98828125;0;1;1;1;0.01171875;7.006492322e-45;1;0.009999999776;9.999999747e-05;50;50;1.161172152;0;0;0;0
321.31575;-0.0239585191;-0.02370407991;0.0008201611927;-14.98828125;0;1;1;1;0.01171875;7.006492322e-45;1;0.009999999776;9.999999747e-05;50;50;1.173992634;0;0;0;0
321.3168;-0.0239585191;-0.02370407991;0.0008201611927;-14.98828125;0;1;1;1;0.01171875;7.006492322e-45;1;0.009999999776;9.999999747e-05;50;50;1.186202645;0;0;0;0
321.31785;-0.0239585191;-0.02370407991;0.0008201611927;-14.98828125;0;1;1;1;0.01171875;7.006492322e-45;1;0.009999999776;9.999999747e-05;50;50;1.230158687;0;0;0;0
321.31855;-0.0239585191;-0.02370407991;0.0008201611927;-14.98828125;0;1;1;1;0.01171875;7.006492322e-45;1;0.009999999776;9.999999747e-05;50;50;1.213675261;0;0;0;0
321.3196;-0.0239585191;-0.02370407991;0.0008201611927;-14.98828125;0;1;1;1;0.01171875;7.006492322e-45;1;0.009999999776;9.999999747e-05;50;50;1.220390677;0;0;0;0
321.32065;-0.0239585191;-0.02370407991;0.0008201611927;-14.98828125;0;1;1;1;0.01171875;7.006492322e-45;1;0.009999999776;9.999999747e-05;50;50;1.213675261;0;0;0;0
321.3217;-0.0239585191;-0.02370407991;0.0008201611927;-14.98828125;0;1;1;1;0.01171875;7.006492322e-45;1;0.009999999776;9.999999747e-05;50;50;1.199633718;0;0;0;0
321.32275;-0.0239585191;-0.02370407991;0.0008201611927;-14.98828125;0;1;1;1;0.01171875;7.006492322e-45;1;0.009999999776;9.999999747e-05;50;50;1.184371233;0;0;0;0
321.3238;-0.0239585191;-0.02370407991;0.0008201611927;-14.98828125;0;1;1;1;0.01171875;7.006492322e-45;1;0.009999999776;9.999999747e-05;50;50;1.181318641;0;0;0;0
321.32485;-0.0239585191;-0.02370407991;0.0008201611927;-14.98828125;0;1;1;1;0.01171875;7.006492322e-45;1;0.009999999776;9.999999747e-05;50;50;1.192307711;0;0;0;0
321.32555;-0.0239585191;-0.02370407991;0.0008201611927;-14.98828125;0;1;1;1;0.01171875;7.006492322e-45;1;0.009999999776;9.999999747e-05;50;50;1.260073304;0;0;0;0
321.3266;-0.0239585191;-0.02370407991;0.0008201611927;-14.98828125;0;1;1;1;0.01171875;7.006492322e-45;1;0.009999999776;9.999999747e-05;50;50;1.232600689;0;0;0;0
321.32765;-0.0239585191;-0.02370407991;0.0008201611927;-14.98828125;0;1;1;1;0.01171875;7.006492322e-45;1;0.009999999776;9.999999747e-05;50;50;1.217948675;0;0;0;0
321.3287;-0.0239585191;-0.02370407991;0.0008201611927;-14.98828125;0;1;1;1;0.01171875;7.006492322e-45;1;0.009999999776;9.999999747e-05;50;50;1.195360184;0;0;0;0
321.32975;-0.0239585191;-0.02370407991;0.0008201611927;-14.98828125;0;1;1;1;0.01171875;7.006492322e-45;1;0.009999999776;9.999999747e-05;50;50;1.181318641;0;0;0;0
321.3308;-0.0239585191;-0.02370407991;0.0008201611927;-14.98828125;0;1;1;1;0.01171875;7.006492322e-45;1;0.009999999776;9.999999747e-05;50;50;1.184371233;0;0;0;0
321.3315;-0.0239585191;-0.02370407991;0.0008201611927;-14.98828125;0;1;1;1;0.01171875;7.006492322e-45;1;0.009999999776;9.999999747e-05;50;50;1.200244188;0;0;0;0
321.33255;-0.0239585191;-0.02370407991;0.0008201611927;-14.98828125;0;1;1;1;0.01171875;7.006492322e-45;1;0.009999999776;9.999999747e-05;50;50;1.236874223;0;0;0;0
321.3336;-0.0239585191;-0.02370407991;0.0008201611927;-14.98828125;0;1;1;1;0.01171875;7.006492322e-45;1;0.009999999776;9.999999747e-05;50;50;1.252136827;0;0;0;0
321.33465;-0.0239585191;-0.02370407991;0.0008201611927;-14.98828125;0;1;1;1;0.01171875;7.006492322e-45;1;0.009999999776;9.999999747e-05;50;50;1.220390677;0;0;0;0
321.3357;-0.0239585191;-0.02370407991;0.0008201611927;-14.98828125;0;1;1;1;0.01171875;7.006492322e-45;1;0.009999999776;9.999999747e-05;50;50;1.176434636;0;0;0;0
321.33675;-0.0239585191;-0.02370407991;0.0008201611927;-14.98828125;0;1;1;1;0.01171875;7.006492322e-45;1;0.009999999776;9.999999747e-05;50;50;1.237484694;0;0;0;0
321.3378;-0.0239585191;-0.02370407991;0.0008201611927;-14.98828125;0;1;1;1;0.01171875;7.006492322e-45;1;0.009999999776;9.999999747e-05;50;50;1.222222209;0;0;0;0
321.3385;-0.0239585191;-0.02370407991;0.0008201611927;-14.98828125;0;1;1;1;0.01171875;7.006492322e-45;1;0.009999999776;9.999999747e-05;50;50;1.192918181;0;0;0;0
321.33955;-0.0239585191;-0.02370407991;0.0008201611927;-14.98828125;0;1;1;1;0.01171875;7.006492322e-45;1;0.009999999776;9.999999747e-05;50;50;1.189865708;0;0;0;0
321.3406;-0.0239585191;-0.02370407991;0.0008201611927;-14.98828125;0;1;1;1;0.01171875;7.006492322e-45;1;0.009999999776;9.999999747e-05;50;50;1.194139242;0;0;0;0
321.34165;-0.0239585191;-0.02370407991;0.0008201611927;-14.98828125;0;1;1;1;0.01171875;7.006492322e-45;1;0.009999999776;9.999999747e-05;50;50;1.219169736;0;0;0;0
321.3427;-0.0239585191;-0.02370407991;0.0008201611927;-14.98828125;0;1;1;1;0.01171875;7.006492322e-45;1;0.009999999776;9.999999747e-05;50;50;1.227106214;0;0;0;0
321.34375;-0.0239585191;-0.02370407991;0.0008201611927;-14.98828125;0;1;1;1;0.01171875;7.006492322e-45;1;0.009999999776;9.999999747e-05;50;50;1.26556778;0;0;0;0
321.3448;-0.0239585191;-0.02370407991;0.0008201611927;-14.98828125;0;1;1;1;0.01171875;7.006492322e-45;1;0.009999999776;9.999999747e-05;50;50;1.216727734;0;0;0;0
321.3455;-0.0239585191;-0.02370407991;0.0008201611927;-14.98828125;0;1;1;1;0.01171875;7.006492322e-45;1;0.009999999776;9.999999747e-05;50;50;1.211233258;0;0;0;0
321.34655;-0.0239585191;-0.02370407991;0.0008201611927;-14.98828125;0;1;1;1;0.01171875;7.006492322e-45;1;0.009999999776;9.999999747e-05;50;50;1.203907251;0;0;0;0
321.3476;-0.0239585191;-0.02370407991;0.0008201611927;-14.98828125;0;1;1;1;0.01171875;7.006492322e-45;1;0.009999999776;9.999999747e-05;50;50;1.178876638;0;0;0;0
321.34865;-0.0239585191;-0.02370407991;0.0008201611927;-14.98828125;0;1;1;1;0.01171875;7.006492322e-45;1;0.009999999776;9.999999747e-05;50;50;1.181318641;0;0;0;0
321.3497;-0.0239585191;-0.02370407991;0.0008201611927;-14.98828125;0;1;1;1;0.01171875;7.006492322e-45;1;0.009999999776;9.999999747e-05;50;50;1.167887688;0;0;0;0
321.35075;-0.0239585191;-0.02370407991;0.0008201611927;-14.98828125;0;1;1;1;0.01171875;7.006492322e-45;1;0.009999999776;9.999999747e-05;50;50;1.162393212;0;0;0;0
321.3518;-0.0239585191;-0.02370407991;0.0008201611927;-14.98828125;0;1;1;1;0.01171875;7.006492322e-45;1;0.009999999776;9.999999747e-05;50;50;1.177655697;0;0;0;0
321.3525;-0.0239585191;-0.02370407991;0.0008201611927;-14.98828125;0;1;1;1;0.01171875;7.006492322e-45;1;0.009999999776;9.999999747e-05;50;50;1.217948675;0;0;0;0
321.35355;-0.0239585191;-0.02370407991;0.0008201611927;-14.98828125;0;1;1;1;0.01171875;7.006492322e-45;1;0.009999999776;9.999999747e-05;50;50;1.202686191;0;0;0;0
321.3546;-0.0239585191;-0.02370407991;0.0008201611927;-14.98828125;0;1;1;1;0.01171875;7.006492322e-45;1;0.009999999776;9.999999747e-05;50;50;1.202686191;0;0;0;0
321.35565;-0.0239585191;-0.02370407991;0.0008201611927;-14.98828125;0;1;1;1;0.01171875;7.006492322e-45;1;0.009999999776;9.999999747e-05;50;50;1.194749713;0;0;0;0
321.3567;-0.0239585191;-0.02370407991;0.0008201611927;-14.98828125;0;1;1;1;0.01171875;7.006492322e-45;1;0.009999999776;9.999999747e-05;50;50;1.203907251;0;0;0;0
321.35775;-0.0239585191;-0.02370407991;0.0008201611927;-14.98828125;0;1;1;1;0.01171875;7.006492322e-45;1;0.009999999776;9.999999747e-05;50;50;1.208180666;0;0;0;0
321.35845;-0.0239585191;-0.02370407991;0.0008201611927;-14.98828125;0;1;1;1;0.01171875;7.006492322e-45;1;0.009999999776;9.999999747e-05;50;50;1.275335789;0;0;0;0
321.3595;-0.0239585191;-0.02370407991;0.0008201611927;-14.98828125;0;1;1;1;0.01171875;7.006492322e-45;1;0.009999999776;9.999999747e-05;50;50;1.260683775;0;0;0;0
321.36055;-0.0239585191;-0.02370407991;0.0008201611927;-14.98828125;0;1;1;1;0.01171875;7.006492322e-45;1;0.009999999776;9.999999747e-05;50;50;1.2551893;0;0;0;0
321.3616;-0.0239585191;-0.02370407991;0.0008201611927;-14.98828125;0;1;1;1;0.01171875;7.006492322e-45;1;0.009999999776;9.999999747e-05;50;50;1.24420023;0;0;0;0
321.36265;-0.0239585191;-0.02370407991;0.0008201611927;-14.98828125;0;1;1;1;0.01171875;7.006492322e-45;1;0.009999999776;9.999999747e-05;50;50;1.241758227;0;0;0;0
321.3637;-0.0239585191;-0.02370407991;0.0008201611927;-14.98828125;0;1;1;1;0.01171875;7.006492322e-45;1;0.009999999776;9.999999747e-05;50;50;1.2448107;0;0;0;0
321.36475;-0.0239585191;-0.02370407991;0.0008201611927;-14.98828125;0;1;1;1;0.01171875;7.006492322e-45;1;0.009999999776;9.999999747e-05;50;50;1.228327274;0;0;0;0
321.36545;-0.0239585191;-0.02370407991;0.0008201611927;-14.98828125;0;1;1;1;0.01171875;7.006492322e-45;1;0.009999999776;9.999999747e-05;50;50;1.199633718;0;0;0;0
321.3665;-0.0239585191;-0.02370407991;0.0008201611927;-14.98828125;0;1;1;1;0.01171875;7.006492322e-45;1;0.009999999776;9.999999747e-05;50;50;1.193528652;0;0;0;0
321.36755;-0.0239585191;-0.02370407991;0.0008201611927;-14.98828125;0;1;1;1;0.01171875;7.006492322e-45;1;0.009999999776;9.999999747e-05;50;50;1.199633718;0;0;0;0
321.3686;-0.0239585191;-0.02370407991;0.0008201611927;-14.98828125;0;1;1;1;0.01171875;7.006492322e-45;1;0.009999999776;9.999999747e-05;50;50;1.233211279;0;0;0;0
321.36965;-0.0239585191;-0.02370407991;0.0008201611927;-14.98828125;0;1;1;1;0.01171875;7.006492322e-45;1;0.009999999776;9.999999747e-05;50;50;1.214285731;0;0;0;0
321.3707;-0.0239585191;-0.02370407991;0.0008201611927;-14.98828125;0;1;1;1;0.01171875;7.006492322e-45;1;0.009999999776;9.999999747e-05;50;50;1.246031761;0;0;0;0
321.37175;-0.0239585191;-0.02370407991;0.0008201611927;-14.98828125;0;1;1;1;0.01171875;7.006492322e-45;1;0.009999999776;9.999999747e-05;50;50;1.249084234;0;0;0;0
321.37245;-0.0239585191;-0.02370407991;0.0008201611927;-14.98828125;0;1;1;1;0.01171875;7.006492322e-45;1;0.009999999776;9.999999747e-05;50;50;1.176434636;0;0;0;0
321.3735;-0.0239585191;-0.02370407991;0.0008201611927;-14.98828125;0;1;1;1;0.01171875;7.006492322e-45;1;0.009999999776;9.999999747e-05;50;50;1.17032969;0;0;0;0
321.37455;-0.0239585191;-0.02370407991;0.0008201611927;-14.98828125;0;1;1;1;0.01171875;7.006492322e-45;1;0.009999999776;9.999999747e-05;50;50;1.175213695;0;0;0;0
321.3756;-0.0239585191;-0.02370407991;0.0008201611927;-14.98828125;0;1;1;1;0.01171875;7.006492322e-45;1;0.009999999776;9.999999747e-05;50;50;1.178266168;0;0;0;0
321.37665;-0.0239585191;-0.02370407991;0.0008201611927;-14.98828125;0;1;1;1;0.01171875;7.006492322e-45;1;0.009999999776;9.999999747e-05;50;50;1.193528652;0;0;0;0
321.3777;-0.0239585191;-0.02370407991;0.0008201611927;-14.98828125;0;1;1;1;0.01171875;7.006492322e-45;1;0.009999999776;9.999999747e-05;50;50;1.22283268;0;0;0;0
321.37875;-0.0239585191;-0.02370407991;0.0008201611927;-14.98828125;0;1;1;1;0.01171875;7.006492322e-45;1;0.009999999776;9.999999747e-05;50;50;1.235653281;0;0;0;0
321.37945;-0.0239585191;-0.02370407991;0.0008201611927;-14.98828125;0;1;1;1;0.01171875;7.006492322e-45;1;0.009999999776;9.999999747e-05;50;50;1.23382175;0;0;0;0
321.3805;-0.0239585191;-0.02370407991;0.0008201611927;-14.98828125;0;1;1;1;0.01171875;7.006492322e-45;1;0.009999999776;9.999999747e-05;50;50;1.240537286;0;0;0;0
321.38155;-0.0239585191;-0.02370407991;0.0008201611927;-14.98828125;0;1;1;1;0.01171875;7.006492322e-45;1;0.009999999776;9.999999747e-05;50;50;1.227716684;0;0;0;0
321.3826;-0.0239585191;-0.02370407991;0.0008201611927;-14.98828125;0;1;1;1;0.01171875;7.006492322e-45;1;0.009999999776;9.999999747e-05;50;50;1.214896202;0;0;0;0
321.38365;-0.0239585191;-0.02370407991;0.0008201611927;-14.98828125;0;1;1;1;0.01171875;7.006492322e-45;1;0.009999999776;9.999999747e-05;50;50;1.206959724;0;0;0;0
321.3847;-0.0239585191;-0.02370407991;0.0008201611927;-14.98828125;0;1;1;1;0.01171875;7.006492322e-45;1;0.009999999776;9.999999747e-05;50;50;1.206349254;0;0;0;0
321.3854;-0.0239585191;-0.02370407991;0.0008201611927;-14.98828125;0;1;1;1;0.01171875;7.006492322e-45;1;0.009999999776;9.999999747e-05;50;50;1.2448107;0;0;0;0
321.38645;-0.0239585191;-0.02370407991;0.0008201611927;-14.98828125;0;1;1;1;0.01171875;7.006492322e-45;1;0.009999999776;9.999999747e-05;50;50;1.271062374;0;0;0;0
321.3875;-0.0239585191;-0.02370407991;0.0008201611927;-14.98828125;0;1;1;1;0.01171875;7.006492322e-45;1;0.009999999776;9.999999747e-05;50;50;1.285103798;0;0;0;0
321.38855;-0.0239585191;-0.02370407991;0.0008201611927;-14.98828125;0;1;1;1;0.01171875;7.006492322e-45;1;0.009999999776;9.999999747e-05;50;50;1.213064671;0;0;0;0
321.3896;-0.0239585191;-0.02370407991;0.0008201611927;-14.98828125;0;1;1;1;0.01171875;7.006492322e-45;1;0.009999999776;9.999999747e-05;50;50;1.195970654;0;0;0;0
321.39065;-0.0239585191;-0.02370407991;0.0008201611927;-14.98828125;0;1;1;1;0.01171875;7.006492322e-45;1;0.009999999776;9.999999747e-05;50;50;1.192918181;0;0;0;0
321.3917;-0.0239585191;-0.02370407991;0.0008201611927;-14.98828125;0;1;1;1;0.01171875;7.006492322e-45;1;0.009999999776;9.999999747e-05;50;50;1.175824165;0;0;0;0
321.3924;-0.0239585191;-0.02370407991;0.0008201611927;-14.98828125;0;1;1;1;0.01171875;7.006492322e-45;1;0.009999999776;9.999999747e-05;50;50;1.158119678;0;0;0;0
321.39345;-0.0239585191;-0.02370407991;0.0008201611927;-14.98828125;0;1;1;1;0.01171875;7.006492322e-45;1;0.009999999776;9.999999747e-05;50;50;1.20207572;0;0;0;0
321.3945;-0.0239585191;-0.02370407991;0.0008201611927;-14.98828125;0;1;1;1;0.01171875;7.006492322e-45;1;0.009999999776;9.999999747e-05;50;50;1.236263752;0;0;0;0
321.39555;-0.0239585191;-0.02370407991;0.0008201611927;-14.98828125;0;1;1;1;0.01171875;7.006492322e-45;1;0.009999999776;9.999999747e-05;50;50;1.228327274;0;0;0;0
321.3966;-0.0239585191;-0.02370407991;0.0008201611927;-14.98828125;0;1;1;1;0.01171875;7.006492322e-45;1;0.009999999776;9.999999747e-05;50;50;1.261294365;0;0;0;0
321.39765;-0.0239585191;-0.02370407991;0.0008201611927;-14.98828125;0;1;1;1;0.01171875;7.006492322e-45;1;0.009999999776;9.999999747e-05;50;50;1.195970654;0;0;0;0
321.3987;-0.0239585191;-0.02370407991;0.0008201611927;-14.98828125;0;1;1;1;0.01171875;7.006492322e-45;1;0.009999999776;9.999999747e-05;50;50;1.230158687;0;0;0;0
321.3994;-0.0239585191;-0.02370407991;0.0008201611927;-14.98828125;0;1;1;1;0.01171875;7.006492322e-45;1;0.009999999776;9.999999747e-05;50;50;1.206349254;0;0;0;0
321.40045;-0.0239585191;-0.02370407991;0.0008201611927;-14.98828125;0;1;1;1;0.01171875;7.006492322e-45;1;0.009999999776;9.999999747e-05;50;50;1.188034177;0;0;0;0
321.4015;-0.0239585191;-0.02370407991;0.0008201611927;-14.98828125;0;1;1;1;0.01171875;7.006492322e-45;1;0.009999999776;9.999999747e-05;50;50;1.184981704;0;0;0;0
321.40255;-0.0239585191;-0.02370407991;0.0008201611927;-14.98828125;0;1;1;1;0.01171875;7.006492322e-45;1;0.009999999776;9.999999747e-05;50;50;1.183760643;0;0;0;0
321.4036;-0.0239585191;-0.02370407991;0.0008201611927;-14.98828125;0;1;1;1;0.01171875;7.006492322e-45;1;0.009999999776;9.999999747e-05;50;50;1.217948675;0;0;0;0
321.40465;-0.0239585191;-0.02370407991;0.0008201611927;-14.98828125;0;1;1;1;0.01171875;7.006492322e-45;1;0.009999999776;9.999999747e-05;50;50;1.196581244;0;0;0;0
321.4057;-0.0239585191;-0.02370407991;0.0008201611927;-14.98828125;0;1;1;1;0.01171875;7.006492322e-45;1;0.009999999776;9.999999747e-05;50;50;1.238705754;0;0;0;0
321.4064;-0.0239585191;-0.02370407991;0.0008201611927;-14.98828125;0;1;1;1;0.01171875;7.006492322e-45;1;0.009999999776;9.999999747e-05;50;50;1.204517722;0;0;0;0
321.40745;-0.0239585191;-0.02370407991;0.0008201611927;-14.98828125;0;1;1;1;0.01171875;7.006492322e-45;1;0.009999999776;9.999999747e-05;50;50;1.198412657;0;0;0;0
321.4085;-0.0239585191;-0.02370407991;0.0008201611927;-14.98828125;0;1;1;1;0.01171875;7.006492322e-45;1;0.009999999776;9.999999747e-05;50;50;1.207570195;0;0;0;0
321.40955;-0.0239585191;-0.02370407991;0.0008201611927;-14.98828125;0;1;1;1;0.01171875;7.006492322e-45;1;0.009999999776;9.999999747e-05;50;50;1.188034177;0;0;0;0
321.4106;-0.0239585191;-0.02370407991;0.0008201611927;-14.98828125;0;1;1;1;0.01171875;7.006492322e-45;1;0.009999999776;9.999999747e-05;50;50;1.171550632;0;0;0;0
321.41165;-0.0239585191;-0.02370407991;0.0008201611927;-14.98828125;0;1;1;1;0.01171875;7.006492322e-45;1;0.009999999776;9.999999747e-05;50;50;1.169108629;0;0;0;0
321.41235;-0.0239585191;-0.02370407991;0.0008201611927;-14.98828125;0;1;1;1;0.01171875;7.006492322e-45;1;0.009999999776;9.999999747e-05;50;50;1.251526356;0;0;0;0
321.4134;-0.0239585191;-0.02370407991;0.0008201611927;-14.98828125;0;1;1;1;0.01171875;7.006492322e-45;1;0.009999999776;9.999999747e-05;50;50;1.18070817;0;0;0;0
321.41445;-0.0239585191;-0.02370407991;0.0008201611927;-14.98828125;0;1;1;1;0.01171875;7.006492322e-45;1;0.009999999776;9.999999747e-05;50;50;1.210622668;0;0;0;0
321.4155;-0.0239585191;-0.02370407991;0.0008201611927;-14.98828125;0;1;1;1;0.01171875;7.006492322e-45;1;0.009999999776;9.999999747e-05;50;50;1.205128193;0;0;0;0
321.41655;-0.0239585191;-0.02370407991;0.0008201611927;-14.98828125;0;1;1;1;0.01171875;7.006492322e-45;1;0.009999999776;9.999999747e-05;50;50;1.213675261;0;0;0;0
321.4176;-0.0239585191;-0.02370407991;0.0008201611927;-14.98828125;0;1;1;1;0.01171875;7.006492322e-45;1;0.009999999776;9.999999747e-05;50;50;1.216727734;0;0;0;0
321.41865;-0.0239585191;-0.02370407991;0.0008201611927;-14.98828125;0;1;1;1;0.01171875;7.006492322e-45;1;0.009999999776;9.999999747e-05;50;50;1.213064671;0;0;0;0
321.41935;-0.0239585191;-0.02370407991;0.0008201611927;-14.98828125;0;1;1;1;0.01171875;7.006492322e-45;1;0.009999999776;9.999999747e-05;50;50;1.231990218;0;0;0;0
321.4204;-0.0239585191;-0.02370407991;0.0008201611927;-14.98828125;0;1;1;1;0.01171875;7.006492322e-45;1;0.009999999776;9.999999747e-05;50;50;1.249084234;0;0;0;0
321.42145;-0.0239585191;-0.02370407991;0.0008201611927;-14.98828125;0;1;1;1;0.01171875;7.006492322e-45;1;0.009999999776;9.999999747e-05;50;50;1.203296661;0;0;0;0
321.4225;-0.0239585191;-0.02370407991;0.0008201611927;-14.98828125;0;1;1;1;0.01171875;7.006492322e-45;1;0.009999999776;9.999999747e-05;50;50;1.213064671;0;0;0;0
321.42355;-0.0239585191;-0.02370407991;0.0008201611927;-14.98828125;0;1;1;1;0.01171875;7.006492322e-45;1;0.009999999776;9.999999747e-05;50;50;1.264346838;0;0;0;0
321.4246;-0.0239585191;-0.02370407991;0.0008201611927;-14.98828125;0;1;1;1;0.01171875;7.006492322e-45;1;0.009999999776;9.999999747e-05;50;50;1.187423706;0;0;0;0
321.42565;-0.0239585191;-0.02370407991;0.0008201611927;-14.98828125;0;1;1;1;0.01171875;7.006492322e-45;1;0.009999999776;9.999999747e-05;50;50;1.23382175;0;0;0;0
321.42635;-0.0239585191;-0.02370407991;0.0008201611927;-14.98828125;0;1;1;1;0.01171875;7.006492322e-45;1;0.009999999776;9.999999747e-05;50;50;1.183760643;0;0;0;0
321.4274;-0.0239585191;-0.02370407991;0.0008201611927;-14.98828125;0;1;1;1;0.01171875;7.006492322e-45;1;0.009999999776;9.999999747e-05;50;50;1.166056156;0;0;0;0
321.42845;-0.0239585191;-0.02370407991;0.0008201611927;-14.98828125;0;1;1;1;0.01171875;7.006492322e-45;1;0.009999999776;9.999999747e-05;50;50;1.166666627;0;0;0;0
321.4295;-0.0239585191;-0.02370407991;0.0008201611927;-14.98828125;0;1;1;1;0.01171875;7.006492322e-45;1;0.009999999776;9.999999747e-05;50;50;1.182539701;0;0;0;0
321.43055;-0.0239585191;-0.02370407991;0.0008201611927;-14.98828125;0;1;1;1;0.01171875;7.006492322e-45;1;0.009999999776;9.999999747e-05;50;50;1.230158687;0;0;0;0
321.4316;-0.0239585191;-0.02370407991;0.0008201611927;-14.98828125;0;1;1;1;0.01171875;7.006492322e-45;1;0.009999999776;9.999999747e-05;50;50;1.226495743;0;0;0;0
321.43265;-0.0239585191;-0.02370407991;0.0008201611927;-14.98828125;0;1;1;1;0.01171875;7.006492322e-45;1;0.009999999776;9.999999747e-05;50;50;1.253968358;0;0;0;0
321.43335;-0.0239585191;-0.02370407991;0.0008201611927;-14.98828125;0;1;1;1;0.01171875;7.006492322e-45;1;0.009999999776;9.999999747e-05;50;50;1.195360184;0;0;0;0
321.4344;-0.0239585191;-0.02370407991;0.0008201611927;-14.98828125;0;1;1;1;0.01171875;7.006492322e-45;1;0.009999999776;9.999999747e-05;50;50;1.183760643;0;0;0;0
321.43545;-0.0239585191;-0.02370407991;0.0008201611927;-14.98828125;0;1;1;1;0.01171875;7.006492322e-45;1;0.009999999776;9.999999747e-05;50;50;1.178266168;0;0;0;0
321.4365;-0.0239585191;-0.02370407991;0.0008201611927;-14.98828125;0;1;1;1;0.01171875;7.006492322e-45;1;0.009999999776;9.999999747e-05;50;50;1.181929231;0;0;0;0
321.43755;-0.0239585191;-0.02370407991;0.0008201611927;-14.98828125;0;1;1;1;0.01171875;7.006492322e-45;1;0.009999999776;9.999999747e-05;50;50;1.173992634;0;0;0;0
321.4386;-0.0239585191;-0.02370407991;0.0008201611927;-14.98828125;0;1;1;1;0.01171875;7.006492322e-45;1;0.009999999776;9.999999747e-05;50;50;1.192307711;0;0;0;0
321.43965;-0.0239585191;-0.02370407991;0.0008201611927;-14.98828125;0;1;1;1;0.01171875;7.006492322e-45;1;0.009999999776;9.999999747e-05;50;50;1.219780207;0;0;0;0
321.44035;-0.0239585191;-0.02370407991;0.0008201611927;-14.98828125;0;1;1;1;0.01171875;7.006492322e-45;1;0.009999999776;9.999999747e-05;50;50;1.242979288;0;0;0;0
321.4414;-0.0239585191;-0.02370407991;0.0008201611927;-14.98828125;0;1;1;1;0.01171875;7.006492322e-45;1;0.009999999776;9.999999747e-05;50;50;1.246031761;0;0;0;0
321.44245;-0.0239585191;-0.02370407991;0.0008201611927;-14.98828125;0;1;1;1;0.01171875;7.006492322e-45;1;0.009999999776;9.999999747e-05;50;50;1.232600689;0;0;0;0
321.4435;-0.0239585191;-0.02370407991;0.0008201611927;-14.98828125;0;1;1;1;0.01171875;7.006492322e-45;1;0.009999999776;9.999999747e-05;50;50;1.241147757;0;0;0;0
321.44455;-0.0239585191;-0.02370407991;0.0008201611927;-14.98828125;0;1;1;1;0.01171875;7.006492322e-45;1;0.009999999776;9.999999747e-05;50;50;1.231990218;0;0;0;0
321.4456;-0.0239585191;-0.02370407991;0.0008201611927;-14.98828125;0;1;1;1;0.01171875;7.006492322e-45;1;0.009999999776;9.999999747e-05;50;50;1.218559265;0;0;0;0
321.4463;-0.0239585191;-0.02370407991;0.0008201611927;-14.98828125;0;1;1;1;0.01171875;7.006492322e-45;1;0.009999999776;9.999999747e-05;50;50;1.257631302;0;0;0;0
321.44735;-0.0239585191;-0.02370407991;0.0008201611927;-14.98828125;0;1;1;1;0.01171875;7.006492322e-45;1;0.009999999776;9.999999747e-05;50;50;1.217948675;0;0;0;0
321.4484;-0.0239585191;-0.02370407991;0.0008201611927;-14.98828125;0;1;1;1;0.01171875;7.006492322e-45;1;0.009999999776;9.999999747e-05;50;50;1.248473763;0;0;0;0
321.44945;-0.0239585191;-0.02370407991;0.0008201611927;-14.98828125;0;1;1;1;0.01171875;7.006492322e-45;1;0.009999999776;9.999999747e-05;50;50;1.270451784;0;0;0;0
321.4505;-0.0239585191;-0.02370407991;0.0008201611927;-14.98828125;0;1;1;1;0.01171875;7.006492322e-45;1;0.009999999776;9.999999747e-05;50;50;1.228327274;0;0;0;0
321.45155;-0.0239585191;-0.02370407991;0.0008201611927;-14.98828125;0;1;1;1;0.01171875;7.006492322e-45;1;0.009999999776;9.999999747e-05;50;50;1.227106214;0;0;0;0
321.4526;-0.0239585191;-0.02370407991;0.0008201611927;-14.98828125;0;1;1;1;0.01171875;7.006492322e-45;1;0.009999999776;9.999999747e-05;50;50;1.231379747;0;0;0;0
321.4533;-0.0239585191;-0.02370407991;0.0008201611927;-14.98828125;0;1;1;1;0.01171875;7.006492322e-45;1;0.009999999776;9.999999747e-05;50;50;1.187423706;0;0;0;0
321.45435;-0.0239585191;-0.02370407991;0.0008201611927;-14.98828125;0;1;1;1;0.01171875;7.006492322e-45;1;0.009999999776;9.999999747e-05;50;50;1.192307711;0;0;0;0
321.4554;-0.0239585191;-0.02370407991;0.0008201611927;-14.98828125;0;1;1;1;0.01171875;7.006492322e-45;1;0.009999999776;9.999999747e-05;50;50;1.152014613;0;0;0;0
321.45645;-0.0239585191;-0.02370407991;0.0008201611927;-14.98828125;0;1;1;1;0.01171875;7.006492322e-45;1;0.009999999776;9.999999747e-05;50;50;1.224664211;0;0;0;0
321.4575;-0.0239585191;-0.02370407991;0.0008201611927;-14.98828125;0;1;1;1;0.01171875;7.006492322e-45;1;0.009999999776;9.999999747e-05;50;50;1.249084234;0;0;0;0
321.45855;-0.0239585191;-0.02370407991;0.0008201611927;-14.98828125;0;1;1;1;0.01171875;7.006492322e-45;1;0.009999999776;9.999999747e-05;50;50;1.282661915;0;0;0;0
321.4596;-0.0239585191;-0.02370407991;0.0008201611927;-14.98828125;0;1;1;1;0.01171875;7.006492322e-45;1;0.009999999776;9.999999747e-05;50;50;1.242979288;0;0;0;0
321.4603;-0.0239585191;-0.02370407991;0.0008201611927;-14.98828125;0;1;1;1;0.01171875;7.006492322e-45;1;0.009999999776;9.999999747e-05;50;50;1.205128193;0;0;0;0
321.46135;-0.0239585191;-0.02370407991;0.0008201611927;-14.98828125;0;1;1;1;0.01171875;7.006492322e-45;1;0.009999999776;9.999999747e-05;50;50;1.19108665;0;0;0;0
321.4624;-0.0239585191;-0.02370407991;0.0008201611927;-14.98828125;0;1;1;1;0.01171875;7.006492322e-45;1;0.009999999776;9.999999747e-05;50;50;1.210622668;0;0;0;0
321.46345;-0.0239585191;-0.02370407991;0.0008201611927;-14.98828125;0;1;1;1;0.01171875;7.006492322e-45;1;0.009999999776;9.999999747e-05;50;50;1.228327274;0;0;0;0
321.4645;-0.0239585191;-0.02370407991;0.0008201611927;-14.98828125;0;1;1;1;0.01171875;7.006492322e-45;1;0.009999999776;9.999999747e-05;50;50;1.217948675;0;0;0;0
321.46555;-0.0239585191;-0.02370407991;0.0008201611927;-14.98828125;0;1;1;1;0.01171875;7.006492322e-45;1;0.009999999776;9.999999747e-05;50;50;1.208180666;0;0;0;0
321.46625;-0.0239585191;-0.02370407991;0.0008201611927;-14.98828125;0;1;1;1;0.01171875;7.006492322e-45;1;0.009999999776;9.999999747e-05;50;50;1.213682413;0;0;0;0
321.4673;-0.0239585191;-0.02370407991;0.0008201611927;-14.98828125;0;1;1;1;0.01171875;7.006492322e-45;1;0.009999999776;9.999999747e-05;50;50;1.238095284;0;0;0;0
321.46835;-0.0239585191;-0.02370407991;0.0008201611927;-14.98828125;0;1;1;1;0.01171875;7.006492322e-45;1;0.009999999776;9.999999747e-05;50;50;1.241147757;0;0;0;0
321.4694;-0.0239585191;-0.02370407991;0.0008201611927;-14.98828125;0;1;1;1;0.01171875;7.006492322e-45;1;0.009999999776;9.999999747e-05;50;50;1.224664211;0;0;0;0
321.47045;-0.0239585191;-0.02370407991;0.0008201611927;-14.98828125;0;1;1;1;0.01171875;7.006492322e-45;1;0.009999999776;9.999999747e-05;50;50;1.200244188;0;0;0;0
321.4715;-0.0239585191;-0.02370407991;0.0008201611927;-14.98828125;0;1;1;1;0.01171875;7.006492322e-45;1;0.009999999776;9.999999747e-05;50;50;1.197802186;0;0;0;0
321.47255;-0.0239585191;-0.02370407991;0.0008201611927;-14.98828125;0;1;1;1;0.01171875;7.006492322e-45;1;0.009999999776;9.999999747e-05;50;50;1.197802186;0;0;0;0
321.47325;-0.0239585191;-0.02370407991;0.0008201611927;-14.98828125;0;1;1;1;0.01171875;7.006492322e-45;1;0.009999999776;9.999999747e-05;50;50;1.218559265;0;0;0;0
321.4743;-0.0239585191;-0.02370407991;0.0008201611927;-14.98828125;0;1;1;1;0.01171875;7.006492322e-45;1;0.009999999776;9.999999747e-05;50;50;1.271062374;0;0;0;0
321.47535;-0.0239585191;-0.02370407991;0.0008201611927;-14.98828125;0;1;1;1;0.01171875;7.006492322e-45;1;0.009999999776;9.999999747e-05;50;50;1.239316225;0;0;0;0
321.4764;-0.0239585191;-0.02370407991;0.0008201611927;-14.98828125;0;1;1;1;0.01171875;7.006492322e-45;1;0.009999999776;9.999999747e-05;50;50;1.226495743;0;0;0;0
321.47745;-0.0239585191;-0.02370407991;0.0008201611927;-14.98828125;0;1;1;1;0.01171875;7.006492322e-45;1;0.009999999776;9.999999747e-05;50;50;1.224053741;0;0;0;0
321.4785;-0.0239585191;-0.02370407991;0.0008201611927;-14.98828125;0;1;1;1;0.01171875;7.006492322e-45;1;0.009999999776;9.999999747e-05;50;50;1.230158687;0;0;0;0
321.47955;-0.0239585191;-0.02370407991;0.0008201611927;-14.98828125;0;1;1;1;0.01171875;7.006492322e-45;1;0.009999999776;9.999999747e-05;50;50;1.241147757;0;0;0;0
321.48025;-0.0239585191;-0.02370407991;0.0008201611927;-14.98828125;0;1;1;1;0.01171875;7.006492322e-45;1;0.009999999776;9.999999747e-05;50;50;1.230158687;0;0;0;0
321.4813;-0.0239585191;-0.02370407991;0.0008201611927;-14.98828125;0;1;1;1;0.01171875;7.006492322e-45;1;0.009999999776;9.999999747e-05;50;50;1.274725318;0;0;0;0
321.48235;-0.0239585191;-0.02370407991;0.0008201611927;-14.98828125;0;1;1;1;0.01171875;7.006492322e-45;1;0.009999999776;9.999999747e-05;50;50;1.278998852;0;0;0;0
321.4834;-0.0239585191;-0.02370407991;0.0008201611927;-14.98828125;0;1;1;1;0.01171875;7.006492322e-45;1;0.009999999776;9.999999747e-05;50;50;1.271672845;0;0;0;0
321.48445;-0.0239585191;-0.02370407991;0.0008201611927;-14.98828125;0;1;1;1;0.01171875;7.006492322e-45;1;0.009999999776;9.999999747e-05;50;50;1.27716732;0;0;0;0
321.4855;-0.0239585191;-0.02370407991;0.0008201611927;-14.98828125;0;1;1;1;0.01171875;7.006492322e-45;1;0.009999999776;9.999999747e-05;50;50;1.285103798;0;0;0;0
321.48655;-0.0239585191;-0.02370407991;0.0008201611927;-14.98828125;0;1;1;1;0.01171875;7.006492322e-45;1;0.009999999776;9.999999747e-05;50;50;1.24420023;0;0;0;0
321.48725;-0.0239585191;-0.02370407991;0.0008201611927;-14.98828125;0;1;1;1;0.01171875;7.006492322e-45;1;0.009999999776;9.999999747e-05;50;50;1.203296661;0;0;0;0
321.4883;-0.0239585191;-0.02370407991;0.0008201611927;-14.98828125;0;1;1;1;0.01171875;7.006492322e-45;1;0.009999999776;9.999999747e-05;50;50;1.188644648;0;0;0;0
321.48935;-0.0239585191;-0.02370407991;0.0008201611927;-14.98828125;0;1;1;1;0.01171875;7.006492322e-45;1;0.009999999776;9.999999747e-05;50;50;1.183150172;0;0;0;0
321.4904;-0.0239585191;-0.02370407991;0.0008201611927;-14.98828125;0;1;1;1;0.01171875;7.006492322e-45;1;0.009999999776;9.999999747e-05;50;50;1.177655697;0;0;0;0
321.49145;-0.0239585191;-0.02370407991;0.0008201611927;-14.98828125;0;1;1;1;0.01171875;7.006492322e-45;1;0.009999999776;9.999999747e-05;50;50;1.208180666;0;0;0;0
321.4925;-0.0239585191;-0.02370407991;0.0008201611927;-14.98828125;0;1;1;1;0.01171875;7.006492322e-45;1;0.009999999776;9.999999747e-05;50;50;1.25579977;0;0;0;0
321.4932;-0.0239585191;-0.02370407991;0.0008201611927;-14.98828125;0;1;1;1;0.01171875;7.006492322e-45;1;0.009999999776;9.999999747e-05;50;50;1.220390677;0;0;0;0
321.49425;-0.0239585191;-0.02370407991;0.0008201611927;-14.98828125;0;1;1;1;0.01171875;7.006492322e-45;1;0.009999999776;9.999999747e-05;50;50;1.206959724;0;0;0;0
321.4953;-0.0239585191;-0.02370407991;0.0008201611927;-14.98828125;0;1;1;1;0.01171875;7.006492322e-45;1;0.009999999776;9.999999747e-05;50;50;1.20207572;0;0;0;0
321.49635;-0.0239585191;-0.02370407991;0.0008201611927;-14.98828125;0;1;1;1;0.01171875;7.006492322e-45;1;0.009999999776;9.999999747e-05;50;50;1.20207572;0;0;0;0
321.4974;-0.0239585191;-0.02370407991;0.0008201611927;-14.98828125;0;1;1;1;0.01171875;7.006492322e-45;1;0.009999999776;9.999999747e-05;50;50;1.211843729;0;0;0;0
321.49845;-0.0239585191;-0.02370407991;0.0008201611927;-14.98828125;0;1;1;1;0.01171875;7.006492322e-45;1;0.009999999776;9.999999747e-05;50;50;1.204517722;0;0;0;0
321.4995;-0.0239585191;-0.02370407991;0.0008201611927;-14.98828125;0;1;1;1;0.01171875;7.006492322e-45;1;0.009999999776;9.999999747e-05;50;50;1.216117263;0;0;0;0
321.5002;-0.0239585191;-0.02370407991;0.0008201611927;-14.98828125;0;1;1;1;0.01171875;7.006492322e-45;1;0.009999999776;9.999999747e-05;50;50;1.318070889;0;0;0;0
321.50125;-0.0239585191;-0.02370407991;0.0008201611927;-14.98828125;0;1;1;1;0.01171875;7.006492322e-45;1;0.009999999776;9.999999747e-05;50;50;1.25641036;0;0;0;0
321.5023;-0.0239585191;-0.02370407991;0.0008201611927;-14.98828125;0;1;1;1;0.01171875;7.006492322e-45;1;0.009999999776;9.999999747e-05;50;50;1.253357887;0;0;0;0
321.50335;-0.0239585191;-0.02370407991;0.0008201611927;-14.98828125;0;1;1;1;0.01171875;7.006492322e-45;1;0.009999999776;9.999999747e-05;50;50;1.250305295;0;0;0;0
321.5044;-0.0239585191;-0.02370407991;0.0008201611927;-14.98828125;0;1;1;1;0.01171875;7.006492322e-45;1;0.009999999776;9.999999747e-05;50;50;1.242979288;0;0;0;0
321.50545;-0.0239585191;-0.02370407991;0.0008201611927;-14.98828125;0;1;1;1;0.01171875;7.006492322e-45;1;0.009999999776;9.999999747e-05;50;50;1.23382175;0;0;0;0
321.5065;-0.0239585191;-0.02370407991;0.0008201611927;-14.98828125;0;1;1;1;0.01171875;7.006492322e-45;1;0.009999999776;9.999999747e-05;50;50;1.224664211;0;0;0;0
321.5072;-0.0239585191;-0.02370407991;0.0008201611927;-14.98828125;0;1;1;1;0.01171875;7.006492322e-45;1;0.009999999776;9.999999747e-05;50;50;1.238095284;0;0;0;0
321.50825;-0.0239585191;-0.02370407991;0.0008201611927;-14.98828125;0;1;1;1;0.01171875;7.006492322e-45;1;0.009999999776;9.999999747e-05;50;50;1.253357887;0;0;0;0
321.5093;-0.0239585191;-0.02370407991;0.0008201611927;-14.98828125;0;1;1;1;0.01171875;7.006492322e-45;1;0.009999999776;9.999999747e-05;50;50;1.253968358;0;0;0;0
321.51035;-0.0239585191;-0.02370407991;0.0008201611927;-14.98828125;0;1;1;1;0.01171875;7.006492322e-45;1;0.009999999776;9.999999747e-05;50;50;1.292429924;0;0;0;0
321.5114;-0.0239585191;-0.02370407991;0.0008201611927;-14.98828125;0;1;1;1;0.01171875;7.006492322e-45;1;0.009999999776;9.999999747e-05;50;50;1.284493327;0;0;0;0
321.51245;-0.0239585191;-0.02370407991;0.0008201611927;-14.98828125;0;1;1;1;0.01171875;7.006492322e-45;1;0.009999999776;9.999999747e-05;50;50;1.251526356;0;0;0;0
321.5135;-0.0239585191;-0.02370407991;0.0008201611927;-14.98828125;0;1;1;1;0.01171875;7.006492322e-45;1;0.009999999776;9.999999747e-05;50;50;1.219169736;0;0;0;0
321.5142;-0.0239585191;-0.02370407991;0.0008201611927;-14.98828125;0;1;1;1;0.01171875;7.006492322e-45;1;0.009999999776;9.999999747e-05;50;50;1.177045226;0;0;0;0
321.51525;-0.0239585191;-0.02370407991;0.0008201611927;-14.98828125;0;1;1;1;0.01171875;7.006492322e-45;1;0.009999999776;9.999999747e-05;50;50;1.178266168;0;0;0;0
321.5163;-0.0239585191;-0.02370407991;0.0008201611927;-14.98828125;0;1;1;1;0.01171875;7.006492322e-45;1;0.009999999776;9.999999747e-05;50;50;1.22283268;0;0;0;0
321.51735;-0.0239585191;-0.02370407991;0.0008201611927;-14.98828125;0;1;1;1;0.01171875;7.006492322e-45;1;0.009999999776;9.999999747e-05;50;50;1.215506673;0;0;0;0
321.5184;-0.0239585191;-0.02370407991;0.0008201611927;-14.98828125;0;1;1;1;0.01171875;7.006492322e-45;1;0.009999999776;9.999999747e-05;50;50;1.273504376;0;0;0;0
321.51945;-0.0239585191;-0.02370407991;0.0008201611927;-14.98828125;0;1;1;1;0.01171875;7.006492322e-45;1;0.009999999776;9.999999747e-05;50;50;1.287545919;0;0;0;0
321.52015;-0.0239585191;-0.02370407991;0.0008201611927;-14.98828125;0;1;1;1;0.01171875;7.006492322e-45;1;0.009999999776;9.999999747e-05;50;50;1.229548216;0;0;0;0
321.5212;-0.0239585191;-0.02370407991;0.0008201611927;-14.98828125;0;1;1;1;0.01171875;7.006492322e-45;1;0.009999999776;9.999999747e-05;50;50;1.217338204;0;0;0;0
321.52225;-0.0239585191;-0.02370407991;0.0008201611927;-14.98828125;0;1;1;1;0.01171875;7.006492322e-45;1;0.009999999776;9.999999747e-05;50;50;1.216727734;0;0;0;0
321.5233;-0.0239585191;-0.02370407991;0.0008201611927;-14.98828125;0;1;1;1;0.01171875;7.006492322e-45;1;0.009999999776;9.999999747e-05;50;50;1.231379747;0;0;0;0
321.52435;-0.0239585191;-0.02370407991;0.0008201611927;-14.98828125;0;1;1;1;0.01171875;7.006492322e-45;1;0.009999999776;9.999999747e-05;50;50;1.230158687;0;0;0;0
321.5254;-0.0239585191;-0.02370407991;0.0008201611927;-14.98828125;0;1;1;1;0.01171875;7.006492322e-45;1;0.009999999776;9.999999747e-05;50;50;1.206959724;0;0;0;0
321.52645;-0.0239585191;-0.02370407991;0.0008201611927;-14.98828125;0;1;1;1;0.01171875;7.006492322e-45;1;0.009999999776;9.999999747e-05;50;50;1.215506673;0;0;0;0
321.52715;-0.0239585191;-0.02370407991;0.0008201611927;-14.98828125;0;1;1;1;0.01171875;7.006492322e-45;1;0.009999999776;9.999999747e-05;50;50;1.286324859;0;0;0;0
321.5282;-0.0239585191;-0.02370407991;0.0008201611927;-14.98828125;0;1;1;1;0.01171875;7.006492322e-45;1;0.009999999776;9.999999747e-05;50;50;1.249694705;0;0;0;0
321.52925;-0.0239585191;-0.02370407991;0.0008201611927;-14.98828125;0;1;1;1;0.01171875;7.006492322e-45;1;0.009999999776;9.999999747e-05;50;50;1.240537286;0;0;0;0
321.5303;-0.0239585191;-0.02370407991;0.0008201611927;-14.98828125;0;1;1;1;0.01171875;7.006492322e-45;1;0.009999999776;9.999999747e-05;50;50;1.227716684;0;0;0;0
321.53135;-0.0239585191;-0.02370407991;0.0008201611927;-14.98828125;0;1;1;1;0.01171875;7.006492322e-45;1;0.009999999776;9.999999747e-05;50;50;1.203296661;0;0;0;0
321.5324;-0.0239585191;-0.02370407991;0.0008201611927;-14.98828125;0;1;1;1;0.01171875;7.006492322e-45;1;0.009999999776;9.999999747e-05;50;50;1.202686191;0;0;0;0
321.53345;-0.0239585191;-0.02370407991;0.0008201611927;-14.98828125;0;1;1;1;0.01171875;7.006492322e-45;1;0.009999999776;9.999999747e-05;50;50;1.194749713;0;0;0;0
321.53415;-0.0239585191;-0.02370407991;0.0008201611927;-14.98828125;0;1;1;1;0.01171875;7.006492322e-45;1;0.009999999776;9.999999747e-05;50;50;1.264957309;0;0;0;0
321.5352;-0.0239585191;-0.02370407991;0.0008201611927;-14.98828125;0;1;1;1;0.01171875;7.006492322e-45;1;0.009999999776;9.999999747e-05;50;50;1.27777791;0;0;0;0
321.53625;-0.0239585191;-0.02370407991;0.0008201611927;-14.98828125;0;1;1;1;0.01171875;7.006492322e-45;1;0.009999999776;9.999999747e-05;50;50;1.26617837;0;0;0;0
321.5373;-0.0239585191;-0.02370407991;0.0008201611927;-14.98828125;0;1;1;1;0.01171875;7.006492322e-45;1;0.009999999776;9.999999747e-05;50;50;1.231990218;0;0;0;0
321.53835;-0.0239585191;-0.02370407991;0.0008201611927;-14.98828125;0;1;1;1;0.01171875;7.006492322e-45;1;0.009999999776;9.999999747e-05;50;50;1.2448107;0;0;0;0
321.5394;-0.0239585191;-0.02370407991;0.0008201611927;-14.98828125;0;1;1;1;0.01171875;7.006492322e-45;1;0.009999999776;9.999999747e-05;50;50;1.235042691;0;0;0;0
321.54045;-0.0239585191;-0.02370407991;0.0008201611927;-14.98828125;0;1;1;1;0.01171875;7.006492322e-45;1;0.009999999776;9.999999747e-05;50;50;1.230158687;0;0;0;0
321.54115;-0.0239585191;-0.02370407991;0.0008201611927;-14.98828125;0;1;1;1;0.01171875;7.006492322e-45;1;0.009999999776;9.999999747e-05;50;50;1.194139242;0;0;0;0
321.5422;-0.0239585191;-0.02370407991;0.0008201611927;-14.98828125;0;1;1;1;0.01171875;7.006492322e-45;1;0.009999999776;9.999999747e-05;50;50;1.206959724;0;0;0;0
321.54325;-0.0239585191;-0.02370407991;0.0008201611927;-14.98828125;0;1;1;1;0.01171875;7.006492322e-45;1;0.009999999776;9.999999747e-05;50;50;1.189255238;0;0;0;0
321.5443;-0.0239585191;-0.02370407991;0.0008201611927;-14.98828125;0;1;1;1;0.01171875;7.006492322e-45;1;0.009999999776;9.999999747e-05;50;50;1.283272386;0;0;0;0
321.54535;-0.0239585191;-0.02370407991;0.0008201611927;-14.98828125;0;1;1;1;0.01171875;7.006492322e-45;1;0.009999999776;9.999999747e-05;50;50;1.294261336;0;0;0;0
321.5464;-0.0239585191;-0.02370407991;0.0008201611927;-14.98828125;0;1;1;1;0.01171875;7.006492322e-45;1;0.009999999776;9.999999747e-05;50;50;1.296092868;0;0;0;0
321.5471;-0.0239585191;-0.02370407991;0.0008201611927;-14.98828125;0;1;1;1;0.01171875;7.006492322e-45;1;0.009999999776;9.999999747e-05;50;50;1.228937745;0;0;0;0
321.54815;-0.0239585191;-0.02370407991;0.0008201611927;-14.98828125;0;1;1;1;0.01171875;7.006492322e-45;1;0.009999999776;9.999999747e-05;50;50;1.216117263;0;0;0;0
321.5492;-0.0239585191;-0.02370407991;0.0008201611927;-14.98828125;0;1;1;1;0.01171875;7.006492322e-45;1;0.009999999776;9.999999747e-05;50;50;1.195970654;0;0;0;0
321.55025;-0.0239585191;-0.02370407991;0.0008201611927;-14.98828125;0;1;1;1;0.01171875;7.006492322e-45;1;0.009999999776;9.999999747e-05;50;50;1.192918181;0;0;0;0
321.5513;-0.0239585191;-0.02370407991;0.0008201611927;-14.98828125;0;1;1;1;0.01171875;7.006492322e-45;1;0.009999999776;9.999999747e-05;50;50;1.198412657;0;0;0;0
321.55235;-0.0239585191;-0.02370407991;0.0008201611927;-14.98828125;0;1;1;1;0.01171875;7.006492322e-45;1;0.009999999776;9.999999747e-05;50;50;1.209401727;0;0;0;0
321.5534;-0.0239585191;-0.02370407991;0.0008201611927;-14.98828125;0;1;1;1;0.01171875;7.006492322e-45;1;0.009999999776;9.999999747e-05;50;50;1.248473763;0;0;0;0
321.5541;-0.0239585191;-0.02370407991;0.0008201611927;-14.98828125;0;1;1;1;0.01171875;7.006492322e-45;1;0.009999999776;9.999999747e-05;50;50;1.229548216;0;0;0;0
321.55515;-0.0239585191;-0.02370407991;0.0008201611927;-14.98828125;0;1;1;1;0.01171875;7.006492322e-45;1;0.009999999776;9.999999747e-05;50;50;1.214896202;0;0;0;0
321.5562;-0.0239585191;-0.02370407991;0.0008201611927;-14.98828125;0;1;1;1;0.01171875;7.006492322e-45;1;0.009999999776;9.999999747e-05;50;50;1.211843729;0;0;0;0
321.55725;-0.0239585191;-0.02370407991;0.0008201611927;-14.98828125;0;1;1;1;0.01171875;7.006492322e-45;1;0.009999999776;9.999999747e-05;50;50;1.246031761;0;0;0;0
321.5583;-0.0239585191;-0.02370407991;0.0008201611927;-14.98828125;0;1;1;1;0.01171875;7.006492322e-45;1;0.009999999776;9.999999747e-05;50;50;1.239316225;0;0;0;0
321.55935;-0.0239585191;-0.02370407991;0.0008201611927;-14.98828125;0;1;1;1;0.01171875;7.006492322e-45;1;0.009999999776;9.999999747e-05;50;50;1.225885272;0;0;0;0
321.5604;-0.0239585191;-0.02370407991;0.0008201611927;-14.98828125;0;1;1;1;0.01171875;7.006492322e-45;1;0.009999999776;9.999999747e-05;50;50;1.22344327;0;0;0;0
321.5611;-0.0239585191;-0.02370407991;0.0008201611927;-14.98828125;0;1;1;1;0.01171875;7.006492322e-45;1;0.009999999776;9.999999747e-05;50;50;1.307081938;0;0;0;0
321.56215;-0.0239585191;-0.02370407991;0.0008201611927;-14.98828125;0;1;1;1;0.01171875;7.006492322e-45;1;0.009999999776;9.999999747e-05;50;50;1.289377332;0;0;0;0
321.5632;-0.0239585191;-0.02370407991;0.0008201611927;-14.98828125;0;1;1;1;0.01171875;7.006492322e-45;1;0.009999999776;9.999999747e-05;50;50;1.269841313;0;0;0;0
321.56425;-0.0239585191;-0.02370407991;0.0008201611927;-14.98828125;0;1;1;1;0.01171875;7.006492322e-45;1;0.009999999776;9.999999747e-05;50;50;1.268620372;0;0;0;0
321.5653;-0.0239585191;-0.02370407991;0.0008201611927;-14.98828125;0;1;1;1;0.01171875;7.006492322e-45;1;0.009999999776;9.999999747e-05;50;50;1.259462833;0;0;0;0
321.56635;-0.0239585191;-0.02370407991;0.0008201611927;-14.98828125;0;1;1;1;0.01171875;7.006492322e-45;1;0.009999999776;9.999999747e-05;50;50;1.243589759;0;0;0;0
321.5674;-0.0239585191;-0.02370407991;0.0008201611927;-14.98828125;0;1;1;1;0.01171875;7.006492322e-45;1;0.009999999776;9.999999747e-05;50;50;1.247863293;0;0;0;0
321.5681;-0.0239585191;-0.02370407991;0.0008201611927;-14.98828125;0;1;1;1;0.01171875;7.006492322e-45;1;0.009999999776;9.999999747e-05;50;50;1.224053741;0;0;0;0
321.56915;-0.0239585191;-0.02370407991;0.0008201611927;-14.98828125;0;1;1;1;0.01171875;7.006492322e-45;1;0.009999999776;9.999999747e-05;50;50;1.260683775;0;0;0;0
321.5702;-0.0239585191;-0.02370407991;0.0008201611927;-14.98828125;0;1;1;1;0.01171875;7.006492322e-45;1;0.009999999776;9.999999747e-05;50;50;1.260073304;0;0;0;0
321.57125;-0.0239585191;-0.02370407991;0.0008201611927;-14.98828125;0;1;1;1;0.01171875;7.006492322e-45;1;0.009999999776;9.999999747e-05;50;50;1.269230843;0;0;0;0
321.5723;-0.0239585191;-0.02370407991;0.0008201611927;-14.98828125;0;1;1;1;0.01171875;7.006492322e-45;1;0.009999999776;9.999999747e-05;50;50;1.261904836;0;0;0;0
321.57335;-0.0239585191;-0.02370407991;0.0008201611927;-14.98828125;0;1;1;1;0.01171875;7.006492322e-45;1;0.009999999776;9.999999747e-05;50;50;1.236263752;0;0;0;0
321.57405;-0.0239585191;-0.02370407991;0.0008201611927;-14.98828125;0;1;1;1;0.01171875;7.006492322e-45;1;0.009999999776;9.999999747e-05;50;50;1.183150172;0;0;0;0
321.5751;-0.0239585191;-0.02370407991;0.0008201611927;-14.98828125;0;1;1;1;0.01171875;7.006492322e-45;1;0.009999999776;9.999999747e-05;50;50;1.184981704;0;0;0;0
321.57615;-0.0239585191;-0.02370407991;0.0008201611927;-14.98828125;0;1;1;1;0.01171875;7.006492322e-45;1;0.009999999776;9.999999747e-05;50;50;1.178876638;0;0;0;0
321.5772;-0.0239585191;-0.02370407991;0.0008201611927;-14.98828125;0;1;1;1;0.01171875;7.006492322e-45;1;0.009999999776;9.999999747e-05;50;50;1.214285731;0;0;0;0
321.57825;-0.0239585191;-0.02370407991;0.0008201611927;-14.98828125;0;1;1;1;0.01171875;7.006492322e-45;1;0.009999999776;9.999999747e-05;50;50;1.204517722;0;0;0;0
321.5793;-0.0239585191;-0.02370407991;0.0008201611927;-14.98828125;0;1;1;1;0.01171875;7.006492322e-45;1;0.009999999776;9.999999747e-05;50;50;1.240537286;0;0;0;0
321.58035;-0.0239585191;-0.02370407991;0.0008201611927;-14.98828125;0;1;1;1;0.01171875;7.006492322e-45;1;0.009999999776;9.999999747e-05;50;50;1.291208863;0;0;0;0
321.58105;-0.0239585191;-0.02370407991;0.0008201611927;-14.98828125;0;1;1;1;0.01171875;7.006492322e-45;1;0.009999999776;9.999999747e-05;50;50;1.227106214;0;0;0;0
321.5821;-0.0239585191;-0.02370407991;0.0008201611927;-14.98828125;0;1;1;1;0.01171875;7.006492322e-45;1;0.009999999776;9.999999747e-05;50;50;1.213064671;0;0;0;0
321.58315;-0.0239585191;-0.02370407991;0.0008201611927;-14.98828125;0;1;1;1;0.01171875;7.006492322e-45;1;0.009999999776;9.999999747e-05;50;50;1.242368698;0;0;0;0
321.5842;-0.0239585191;-0.02370407991;0.0008201611927;-14.98828125;0;1;1;1;0.01171875;7.006492322e-45;1;0.009999999776;9.999999747e-05;50;50;1.235653281;0;0;0;0
321.58525;-0.0239585191;-0.02370407991;0.0008201611927;-14.98828125;0;1;1;1;0.01171875;7.006492322e-45;1;0.009999999776;9.999999747e-05;50;50;1.214896202;0;0;0;0
321.5863;-0.0239585191;-0.02370407991;0.0008201611927;-14.98828125;0;1;1;1;0.01171875;7.006492322e-45;1;0.009999999776;9.999999747e-05;50;50;1.208180666;0;0;0;0
321.58735;-0.0239585191;-0.02370407991;0.0008201611927;-14.98828125;0;1;1;1;0.01171875;7.006492322e-45;1;0.009999999776;9.999999747e-05;50;50;1.203296661;0;0;0;0
321.58805;-0.0239585191;-0.02370407991;0.0008201611927;-14.98828125;0;1;1;1;0.01171875;7.006492322e-45;1;0.009999999776;9.999999747e-05;50;50;1.24420023;0;0;0;0
321.5891;-0.0239585191;-0.02370407991;0.0008201611927;-14.98828125;0;1;1;1;0.01171875;7.006492322e-45;1;0.009999999776;9.999999747e-05;50;50;1.252136827;0;0;0;0
321.59015;-0.0239585191;-0.02370407991;0.0008201611927;-14.98828125;0;1;1;1;0.01171875;7.006492322e-45;1;0.009999999776;9.999999747e-05;50;50;1.237484694;0;0;0;0
321.5912;-0.0239585191;-0.02370407991;0.0008201611927;-14.98828125;0;1;1;1;0.01171875;7.006492322e-45;1;0.009999999776;9.999999747e-05;50;50;1.23443222;0;0;0;0
321.59225;-0.0239585191;-0.02370407991;0.0008201611927;-14.98828125;0;1;1;1;0.01171875;7.006492322e-45;1;0.009999999776;9.999999747e-05;50;50;1.224053741;0;0;0;0
321.5933;-0.0239585191;-0.02370407991;0.0008201611927;-14.98828125;0;1;1;1;0.01171875;7.006492322e-45;1;0.009999999776;9.999999747e-05;50;50;1.204517722;0;0;0;0
321.59435;-0.0239585191;-0.02370407991;0.0008201611927;-14.98828125;0;1;1;1;0.01171875;7.006492322e-45;1;0.009999999776;9.999999747e-05;50;50;1.206959724;0;0;0;0
321.59505;-0.0239585191;-0.02370407991;0.0008201611927;-14.98828125;0;1;1;1;0.01171875;7.006492322e-45;1;0.009999999776;9.999999747e-05;50;50;1.269841313;0;0;0;0
321.5961;-0.0239585191;-0.02370407991;0.0008201611927;-14.98828125;0;1;1;1;0.01171875;7.006492322e-45;1;0.009999999776;9.999999747e-05;50;50;1.260073304;0;0;0;0
321.59715;-0.0239585191;-0.02370407991;0.0008201611927;-14.98828125;0;1;1;1;0.01171875;7.006492322e-45;1;0.009999999776;9.999999747e-05;50;50;1.293040395;0;0;0;0
321.5982;-0.0239585191;-0.02370407991;0.0008201611927;-14.98828125;0;1;1;1;0.01171875;7.006492322e-45;1;0.009999999776;9.999999747e-05;50;50;1.202686191;0;0;0;0
321.59925;-0.0239585191;-0.02370407991;0.0008201611927;-14.98828125;0;1;1;1;0.01171875;7.006492322e-45;1;0.009999999776;9.999999747e-05;50;50;1.253968358;0;0;0;0
321.6003;-0.0239585191;-0.02370407991;0.0008201611927;-14.98828125;0;1;1;1;0.01171875;7.006492322e-45;1;0.009999999776;9.999999747e-05;50;50;1.247252703;0;0;0;0
321.601;-0.0239585191;-0.02370407991;0.0008201611927;-14.98828125;0;1;1;1;0.01171875;7.006492322e-45;1;0.009999999776;9.999999747e-05;50;50;1.211843729;0;0;0;0
321.60205;-0.0239585191;-0.02370407991;0.0008201611927;-14.98828125;0;1;1;1;0.01171875;7.006492322e-45;1;0.009999999776;9.999999747e-05;50;50;1.201465249;0;0;0;0
321.6031;-0.0239585191;-0.02370407991;0.0008201611927;-14.98828125;0;1;1;1;0.01171875;7.006492322e-45;1;0.009999999776;9.999999747e-05;50;50;1.196581244;0;0;0;0
321.60415;-0.0239585191;-0.02370407991;0.0008201611927;-14.98828125;0;1;1;1;0.01171875;7.006492322e-45;1;0.009999999776;9.999999747e-05;50;50;1.23382175;0;0;0;0
321.6052;-0.0239585191;-0.02370407991;0.0008201611927;-14.98828125;0;1;1;1;0.01171875;7.006492322e-45;1;0.009999999776;9.999999747e-05;50;50;1.230769277;0;0;0;0
321.60625;-0.0239585191;-0.02370407991;0.0008201611927;-14.98828125;0;1;1;1;0.01171875;7.006492322e-45;1;0.009999999776;9.999999747e-05;50;50;1.247863293;0;0;0;0
321.6073;-0.0239585191;-0.02370407991;0.0008201611927;-14.98828125;0;1;1;1;0.01171875;7.006492322e-45;1;0.009999999776;9.999999747e-05;50;50;1.284493327;0;0;0;0
321.608;-0.0239585191;-0.02370407991;0.0008201611927;-14.98828125;0;1;1;1;0.01171875;7.006492322e-45;1;0.009999999776;9.999999747e-05;50;50;1.240537286;0;0;0;0
321.60905;-0.0239585191;-0.02370407991;0.0008201611927;-14.98828125;0;1;1;1;0.01171875;7.006492322e-45;1;0.009999999776;9.999999747e-05;50;50;1.218559265;0;0;0;0
321.6101;-0.0239585191;-0.02370407991;0.0008201611927;-14.98828125;0;1;1;1;0.01171875;7.006492322e-45;1;0.009999999776;9.999999747e-05;50;50;1.197191715;0;0;0;0
321.61115;-0.0239585191;-0.02370407991;0.0008201611927;-14.98828125;0;1;1;1;0.01171875;7.006492322e-45;1;0.009999999776;9.999999747e-05;50;50;1.210622668;0;0;0;0
321.6122;-0.0239585191;-0.02370407991;0.0008201611927;-14.98828125;0;1;1;1;0.01171875;7.006492322e-45;1;0.009999999776;9.999999747e-05;50;50;1.211843729;0;0;0;0
321.61325;-0.0239585191;-0.02370407991;0.0008201611927;-14.98828125;0;1;1;1;0.01171875;7.006492322e-45;1;0.009999999776;9.999999747e-05;50;50;1.211233258;0;0;0;0
321.6143;-0.0239585191;-0.02370407991;0.0008201611927;-14.98828125;0;1;1;1;0.01171875;7.006492322e-45;1;0.009999999776;9.999999747e-05;50;50;1.230158687;0;0;0;0
321.615;-0.0239585191;-0.02370407991;0.0008201611927;-14.98828125;0;1;1;1;0.01171875;7.006492322e-45;1;0.009999999776;9.999999747e-05;50;50;1.216117263;0;0;0;0
321.61605;-0.0239585191;-0.02370407991;0.0008201611927;-14.98828125;0;1;1;1;0.01171875;7.006492322e-45;1;0.009999999776;9.999999747e-05;50;50;1.208791256;0;0;0;0
321.6171;-0.0239585191;-0.02370407991;0.0008201611927;-14.98828125;0;1;1;1;0.01171875;7.006492322e-45;1;0.009999999776;9.999999747e-05;50;50;1.227716684;0;0;0;0
321.61815;-0.0239585191;-0.02370407991;0.0008201611927;-14.98828125;0;1;1;1;0.01171875;7.006492322e-45;1;0.009999999776;9.999999747e-05;50;50;1.235042691;0;0;0;0
321.6192;-0.0239585191;-0.02370407991;0.0008201611927;-14.98828125;0;1;1;1;0.01171875;7.006492322e-45;1;0.009999999776;9.999999747e-05;50;50;1.226495743;0;0;0;0
321.62025;-0.0239585191;-0.02370407991;0.0008201611927;-14.98828125;0;1;1;1;0.01171875;7.006492322e-45;1;0.009999999776;9.999999747e-05;50;50;1.2124542;0;0;0;0
321.6213;-0.0239585191;-0.02370407991;0.0008201611927;-14.98828125;0;1;1;1;0.01171875;7.006492322e-45;1;0.009999999776;9.999999747e-05;50;50;1.203907251;0;0;0;0
321.622;-0.0239585191;-0.02370407991;0.0008201611927;-14.98828125;0;1;1;1;0.01171875;7.006492322e-45;1;0.009999999776;9.999999747e-05;50;50;1.27777791;0;0;0;0
321.62305;-0.0239585191;-0.02370407991;0.0008201611927;-14.98828125;0;1;1;1;0.01171875;7.006492322e-45;1;0.009999999776;9.999999747e-05;50;50;1.273504376;0;0;0;0
321.6241;-0.0239585191;-0.02370407991;0.0008201611927;-14.98828125;0;1;1;1;0.01171875;7.006492322e-45;1;0.009999999776;9.999999747e-05;50;50;1.308302879;0;0;0;0
321.62515;-0.0239585191;-0.02370407991;0.0008201611927;-14.98828125;0;1;1;1;0.01171875;7.006492322e-45;1;0.009999999776;9.999999747e-05;50;50;1.268620372;0;0;0;0
321.6262;-0.0239585191;-0.02370407991;0.0008201611927;-14.98828125;0;1;1;1;0.01171875;7.006492322e-45;1;0.009999999776;9.999999747e-05;50;50;1.250915766;0;0;0;0
321.62725;-0.0239585191;-0.02370407991;0.0008201611927;-14.98828125;0;1;1;1;0.01171875;7.006492322e-45;1;0.009999999776;9.999999747e-05;50;50;1.23382175;0;0;0;0
321.62795;-0.0239585191;-0.02370407991;0.0008201611927;-14.98828125;0;1;1;1;0.01171875;7.006492322e-45;1;0.009999999776;9.999999747e-05;50;50;1.188034177;0;0;0;0
321.629;-0.0239585191;-0.02370407991;0.0008201611927;-14.98828125;0;1;1;1;0.01171875;7.006492322e-45;1;0.009999999776;9.999999747e-05;50;50;1.189865708;0;0;0;0
321.63005;-0.0239585191;-0.02370407991;0.0008201611927;-14.98828125;0;1;1;1;0.01171875;7.006492322e-45;1;0.009999999776;9.999999747e-05;50;50;1.15995121;0;0;0;0
321.6311;-0.0239585191;-0.02370407991;0.0008201611927;-14.98828125;0;1;1;1;0.01171875;7.006492322e-45;1;0.009999999776;9.999999747e-05;50;50;1.259462833;0;0;0;0
321.63215;-0.0239585191;-0.02370407991;0.0008201611927;-14.98828125;0;1;1;1;0.01171875;7.006492322e-45;1;0.009999999776;9.999999747e-05;50;50;1.28815639;0;0;0;0
321.6332;-0.0239585191;-0.02370407991;0.0008201611927;-14.98828125;0;1;1;1;0.01171875;7.006492322e-45;1;0.009999999776;9.999999747e-05;50;50;1.250915766;0;0;0;0
321.63425;-0.0239585191;-0.02370407991;0.0008201611927;-14.98828125;0;1;1;1;0.01171875;7.006492322e-45;1;0.009999999776;9.999999747e-05;50;50;1.243589759;0;0;0;0
321.63495;-0.0239585191;-0.02370407991;0.0008201611927;-14.98828125;0;1;1;1;0.01171875;7.006492322e-45;1;0.009999999776;9.999999747e-05;50;50;1.199633718;0;0;0;0
321.636;-0.0239585191;-0.02370407991;0.0008201611927;-14.98828125;0;1;1;1;0.01171875;7.006492322e-45;1;0.009999999776;9.999999747e-05;50;50;1.197802186;0;0;0;0
321.63705;-0.0239585191;-0.02370407991;0.0008201611927;-14.98828125;0;1;1;1;0.01171875;7.006492322e-45;1;0.009999999776;9.999999747e-05;50;50;1.197191715;0;0;0;0
321.6381;-0.0239585191;-0.02370407991;0.0008201611927;-14.98828125;0;1;1;1;0.01171875;7.006492322e-45;1;0.009999999776;9.999999747e-05;50;50;1.202686191;0;0;0;0
321.63915;-0.0239585191;-0.02370407991;0.0008201611927;-14.98828125;0;1;1;1;0.01171875;7.006492322e-45;1;0.009999999776;9.999999747e-05;50;50;1.273504376;0;0;0;0
321.6402;-0.0239585191;-0.02370407991;0.0008201611927;-14.98828125;0;1;1;1;0.01171875;7.006492322e-45;1;0.009999999776;9.999999747e-05;50;50;1.25641036;0;0;0;0
321.64125;-0.0239585191;-0.02370407991;0.0008201611927;-14.98828125;0;1;1;1;0.01171875;7.006492322e-45;1;0.009999999776;9.999999747e-05;50;50;1.258241892;0;0;0;0
321.64195;-0.0239585191;-0.02370407991;0.0008201611927;-14.98828125;0;1;1;1;0.01171875;7.006492322e-45;1;0.009999999776;9.999999747e-05;50;50;1.258852363;0;0;0;0
321.643;-0.0239585191;-0.02370407991;0.0008201611927;-14.98828125;0;1;1;1;0.01171875;7.006492322e-45;1;0.009999999776;9.999999747e-05;50;50;1.250305295;0;0;0;0
321.64405;-0.0239585191;-0.02370407991;0.0008201611927;-14.98828125;0;1;1;1;0.01171875;7.006492322e-45;1;0.009999999776;9.999999747e-05;50;50;1.258852363;0;0;0;0
321.6451;-0.0239585191;-0.02370407991;0.0008201611927;-14.98828125;0;1;1;1;0.01171875;7.006492322e-45;1;0.009999999776;9.999999747e-05;50;50;1.235042691;0;0;0;0
321.64615;-0.0239585191;-0.02370407991;0.0008201611927;-14.98828125;0;1;1;1;0.01171875;7.006492322e-45;1;0.009999999776;9.999999747e-05;50;50;1.227106214;0;0;0;0
321.6472;-0.0239585191;-0.02370407991;0.0008201611927;-14.98828125;0;1;1;1;0.01171875;7.006492322e-45;1;0.009999999776;9.999999747e-05;50;50;1.208180666;0;0;0;0
321.64825;-0.0239585191;-0.02370407991;0.0008201611927;-14.98828125;0;1;1;1;0.01171875;7.006492322e-45;1;0.009999999776;9.999999747e-05;50;50;1.195360184;0;0;0;0
321.64895;-0.0239585191;-0.02370407991;0.0008201611927;-14.98828125;0;1;1;1;0.01171875;7.006492322e-45;1;0.009999999776;9.999999747e-05;50;50;1.25579977;0;0;0;0
321.65;-0.0239585191;-0.02370407991;0.0008201611927;-14.98828125;0;1;1;1;0.01171875;7.006492322e-45;1;0.009999999776;9.999999747e-05;50;50;1.239316225;0;0;0;0
321.65105;-0.0239585191;-0.02370407991;0.0008201611927;-14.98828125;0;1;1;1;0.01171875;7.006492322e-45;1;0.009999999776;9.999999747e-05;50;50;1.225885272;0;0;0;0
321.6521;-0.0239585191;-0.02370407991;0.0008201611927;-14.98828125;0;1;1;1;0.01171875;7.006492322e-45;1;0.009999999776;9.999999747e-05;50;50;1.239926696;0;0;0;0
321.65315;-0.0239585191;-0.02370407991;0.0008201611927;-14.98828125;0;1;1;1;0.01171875;7.006492322e-45;1;0.009999999776;9.999999747e-05;50;50;1.219780207;0;0;0;0
321.6542;-0.0239585191;-0.02370407991;0.0008201611927;-14.98828125;0;1;1;1;0.01171875;7.006492322e-45;1;0.009999999776;9.999999747e-05;50;50;1.208180666;0;0;0;0
321.6549;-0.0239585191;-0.02370407991;0.0008201611927;-14.98828125;0;1;1;1;0.01171875;7.006492322e-45;1;0.009999999776;9.999999747e-05;50;50;1.174603224;0;0;0;0
321.65595;-0.0239585191;-0.02370407991;0.0008201611927;-14.98828125;0;1;1;1;0.01171875;7.006492322e-45;1;0.009999999776;9.999999747e-05;50;50;1.237484694;0;0;0;0
321.657;-0.0239585191;-0.02370407991;0.0008201611927;-14.98828125;0;1;1;1;0.01171875;7.006492322e-45;1;0.009999999776;9.999999747e-05;50;50;1.2551893;0;0;0;0
321.65805;-0.0239585191;-0.02370407991;0.0008201611927;-14.98828125;0;1;1;1;0.01171875;7.006492322e-45;1;0.009999999776;9.999999747e-05;50;50;1.287545919;0;0;0;0
321.6591;-0.0239585191;-0.02370407991;0.0008201611927;-14.98828125;0;1;1;1;0.01171875;7.006492322e-45;1;0.009999999776;9.999999747e-05;50;50;1.251526356;0;0;0;0
321.66015;-0.0239585191;-0.02370407991;0.0008201611927;-14.98828125;0;1;1;1;0.01171875;7.006492322e-45;1;0.009999999776;9.999999747e-05;50;50;1.246031761;0;0;0;0
321.6612;-0.0239585191;-0.02370407991;0.0008201611927;-14.98828125;0;1;1;1;0.01171875;7.006492322e-45;1;0.009999999776;9.999999747e-05;50;50;1.252136827;0;0;0;0
321.6619;-0.0239585191;-0.02370407991;0.0008201611927;-14.98828125;0;1;1;1;0.01171875;7.006492322e-45;1;0.009999999776;9.999999747e-05;50;50;1.217338204;0;0;0;0
321.66295;-0.0239585191;-0.02370407991;0.0008201611927;-14.98828125;0;1;1;1;0.01171875;7.006492322e-45;1;0.009999999776;9.999999747e-05;50;50;1.224053741;0;0;0;0
321.664;-0.0239585191;-0.02370407991;0.0008201611927;-14.98828125;0;1;1;1;0.01171875;7.006492322e-45;1;0.009999999776;9.999999747e-05;50;50;1.226495743;0;0;0;0
321.66505;-0.0239585191;-0.02370407991;0.0008201611927;-14.98828125;0;1;1;1;0.01171875;7.006492322e-45;1;0.009999999776;9.999999747e-05;50;50;1.214285731;0;0;0;0
321.6661;-0.0239585191;-0.02370407991;0.0008201611927;-14.98828125;0;1;1;1;0.01171875;7.006492322e-45;1;0.009999999776;9.999999747e-05;50;50;1.183150172;0;0;0;0
321.66715;-0.0239585191;-0.02370407991;0.0008201611927;-14.98828125;0;1;1;1;0.01171875;7.006492322e-45;1;0.009999999776;9.999999747e-05;50;50;1.259462833;0;0;0;0
321.6682;-0.0239585191;-0.02370407991;0.0008201611927;-14.98828125;0;1;1;1;0.01171875;7.006492322e-45;1;0.009999999776;9.999999747e-05;50;50;1.263125896;0;0;0;0
321.6689;-0.0239585191;-0.02370407991;0.0008201611927;-14.98828125;0;1;1;1;0.01171875;7.006492322e-45;1;0.009999999776;9.999999747e-05;50;50;1.219169736;0;0;0;0
321.66995;-0.0239585191;-0.02370407991;0.0008201611927;-14.98828125;0;1;1;1;0.01171875;7.006492322e-45;1;0.009999999776;9.999999747e-05;50;50;1.215506673;0;0;0;0
321.671;-0.0239585191;-0.02370407991;0.0008201611927;-14.98828125;0;1;1;1;0.01171875;7.006492322e-45;1;0.009999999776;9.999999747e-05;50;50;1.205738664;0;0;0;0
321.67205;-0.0239585191;-0.02370407991;0.0008201611927;-14.98828125;0;1;1;1;0.01171875;7.006492322e-45;1;0.009999999776;9.999999747e-05;50;50;1.208791256;0;0;0;0
321.6731;-0.0239585191;-0.02370407991;0.0008201611927;-14.98828125;0;1;1;1;0.01171875;7.006492322e-45;1;0.009999999776;9.999999747e-05;50;50;1.19108665;0;0;0;0
321.67415;-0.0239585191;-0.02370407991;0.0008201611927;-14.98828125;0;1;1;1;0.01171875;7.006492322e-45;1;0.009999999776;9.999999747e-05;50;50;1.187423706;0;0;0;0
321.6752;-0.0239585191;-0.02370407991;0.0008201611927;-14.98828125;0;1;1;1;0.01171875;7.006492322e-45;1;0.009999999776;9.999999747e-05;50;50;1.20207572;0;0;0;0
321.6759;-0.0239585191;-0.02370407991;0.0008201611927;-14.98828125;0;1;1;1;0.01171875;7.006492322e-45;1;0.009999999776;9.999999747e-05;50;50;1.221611738;0;0;0;0
321.67695;-0.0239585191;-0.02370407991;0.0008201611927;-14.98828125;0;1;1;1;0.01171875;7.006492322e-45;1;0.009999999776;9.999999747e-05;50;50;1.23443222;0;0;0;0
321.678;-0.0239585191;-0.02370407991;0.0008201611927;-14.98828125;0;1;1;1;0.01171875;7.006492322e-45;1;0.009999999776;9.999999747e-05;50;50;1.248473763;0;0;0;0
321.67905;-0.0239585191;-0.02370407991;0.0008201611927;-14.98828125;0;1;1;1;0.01171875;7.006492322e-45;1;0.009999999776;9.999999747e-05;50;50;1.249084234;0;0;0;0
321.6801;-0.0239585191;-0.02370407991;0.0008201611927;-14.98828125;0;1;1;1;0.01171875;7.006492322e-45;1;0.009999999776;9.999999747e-05;50;50;1.236874223;0;0;0;0
321.68115;-0.0239585191;-0.02370407991;0.0008201611927;-14.98828125;0;1;1;1;0.01171875;7.006492322e-45;1;0.009999999776;9.999999747e-05;50;50;1.232600689;0;0;0;0
321.68185;-0.0239585191;-0.02370407991;0.0008201611927;-14.98828125;0;1;1;1;0.01171875;7.006492322e-45;1;0.009999999776;9.999999747e-05;50;50;1.285714388;0;0;0;0
321.6829;-0.0239585191;-0.02370407991;0.0008201611927;-14.98828125;0;1;1;1;0.01171875;7.006492322e-45;1;0.009999999776;9.999999747e-05;50;50;1.271062374;0;0;0;0
321.68395;-0.0239585191;-0.02370407991;0.0008201611927;-14.98828125;0;1;1;1;0.01171875;7.006492322e-45;1;0.009999999776;9.999999747e-05;50;50;1.322954893;0;0;0;0
321.685;-0.0239585191;-0.02370407991;0.0008201611927;-14.98828125;0;1;1;1;0.01171875;7.006492322e-45;1;0.009999999776;9.999999747e-05;50;50;1.346764445;0;0;0;0
321.68605;-0.0239585191;-0.02370407991;0.0008201611927;-14.98828125;0;1;1;1;0.01171875;7.006492322e-45;1;0.009999999776;9.999999747e-05;50;50;1.262515306;0;0;0;0
321.6871;-0.0239585191;-0.02370407991;0.0008201611927;-14.98828125;0;1;1;1;0.01171875;7.006492322e-45;1;0.009999999776;9.999999747e-05;50;50;1.257631302;0;0;0;0
321.68815;-0.0239585191;-0.02370407991;0.0008201611927;-14.98828125;0;1;1;1;0.01171875;7.006492322e-45;1;0.009999999776;9.999999747e-05;50;50;1.231990218;0;0;0;0
321.68885;-0.0239585191;-0.02370407991;0.0008201611927;-14.98828125;0;1;1;1;0.01171875;7.006492322e-45;1;0.009999999776;9.999999747e-05;50;50;1.181318641;0;0;0;0
321.6899;-0.0239585191;-0.02370407991;0.0008201611927;-14.98828125;0;1;1;1;0.01171875;7.006492322e-45;1;0.009999999776;9.999999747e-05;50;50;1.185592175;0;0;0;0
321.69095;-0.0239585191;-0.02370407991;0.0008201611927;-14.98828125;0;1;1;1;0.01171875;7.006492322e-45;1;0.009999999776;9.999999747e-05;50;50;1.219169736;0;0;0;0
321.692;-0.0239585191;-0.02370407991;0.0008201611927;-14.98828125;0;1;1;1;0.01171875;7.006492322e-45;1;0.009999999776;9.999999747e-05;50;50;1.239316225;0;0;0;0
321.69305;-0.0239585191;-0.02370407991;0.0008201611927;-14.98828125;0;1;1;1;0.01171875;7.006492322e-45;1;0.009999999776;9.999999747e-05;50;50;1.220390677;0;0;0;0
321.6941;-0.0239585191;-0.02370407991;0.0008201611927;-14.98828125;0;1;1;1;0.01171875;7.006492322e-45;1;0.009999999776;9.999999747e-05;50;50;1.286324859;0;0;0;0
321.69515;-0.0239585191;-0.02370407991;0.0008201611927;-14.98828125;0;1;1;1;0.01171875;7.006492322e-45;1;0.009999999776;9.999999747e-05;50;50;1.236874223;0;0;0;0
321.69585;-0.0239585191;-0.02370407991;0.0008201611927;-14.98828125;0;1;1;1;0.01171875;7.006492322e-45;1;0.009999999776;9.999999747e-05;50;50;1.210622668;0;0;0;0
321.6969;-0.0239585191;-0.02370407991;0.0008201611927;-14.98828125;0;1;1;1;0.01171875;7.006492322e-45;1;0.009999999776;9.999999747e-05;50;50;1.217948675;0;0;0;0
321.69795;-0.0239585191;-0.02370407991;0.0008201611927;-14.98828125;0;1;1;1;0.01171875;7.006492322e-45;1;0.009999999776;9.999999747e-05;50;50;1.205128193;0;0;0;0
321.699;-0.0239585191;-0.02370407991;0.0008201611927;-14.98828125;0;1;1;1;0.01171875;7.006492322e-45;1;0.009999999776;9.999999747e-05;50;50;1.204517722;0;0;0;0
321.70005;-0.0239585191;-0.02370407991;0.0008201611927;-14.98828125;0;1;1;1;0.01171875;7.006492322e-45;1;0.009999999776;9.999999747e-05;50;50;1.22283268;0;0;0;0
321.7011;-0.0239585191;-0.02370407991;0.0008201611927;-14.98828125;0;1;1;1;0.01171875;7.006492322e-45;1;0.009999999776;9.999999747e-05;50;50;1.213064671;0;0;0;0
321.70215;-0.0239585191;-0.02370407991;0.0008201611927;-14.98828125;0;1;1;1;0.01171875;7.006492322e-45;1;0.009999999776;9.999999747e-05;50;50;1.23382175;0;0;0;0
321.70285;-0.0239585191;-0.02370407991;0.0008201611927;-14.98828125;0;1;1;1;0.01171875;7.006492322e-45;1;0.009999999776;9.999999747e-05;50;50;1.246642232;0;0;0;0
321.7039;-0.0239585191;-0.02370407991;0.0008201611927;-14.98828125;0;1;1;1;0.01171875;7.006492322e-45;1;0.009999999776;9.999999747e-05;50;50;1.232600689;0;0;0;0
321.70495;-0.0239585191;-0.02370407991;0.0008201611927;-14.98828125;0;1;1;1;0.01171875;7.006492322e-45;1;0.009999999776;9.999999747e-05;50;50;1.22283268;0;0;0;0
321.706;-0.0239585191;-0.02370407991;0.0008201611927;-14.98828125;0;1;1;1;0.01171875;7.006492322e-45;1;0.009999999776;9.999999747e-05;50;50;1.225274682;0;0;0;0
321.70705;-0.0239585191;-0.02370407991;0.0008201611927;-14.98828125;0;1;1;1;0.01171875;7.006492322e-45;1;0.009999999776;9.999999747e-05;50;50;1.199023247;0;0;0;0
321.7081;-0.0239585191;-0.02370407991;0.0008201611927;-14.98828125;0;1;1;1;0.01171875;7.006492322e-45;1;0.009999999776;9.999999747e-05;50;50;1.193528652;0;0;0;0
321.7088;-0.0239585191;-0.02370407991;0.0008201611927;-14.98828125;0;1;1;1;0.01171875;7.006492322e-45;1;0.009999999776;9.999999747e-05;50;50;1.249084234;0;0;0;0
321.70985;-0.0239585191;-0.02370407991;0.0008201611927;-14.98828125;0;1;1;1;0.01171875;7.006492322e-45;1;0.009999999776;9.999999747e-05;50;50;1.278998852;0;0;0;0
321.7109;-0.0239585191;-0.02370407991;0.0008201611927;-14.98828125;0;1;1;1;0.01171875;7.006492322e-45;1;0.009999999776;9.999999747e-05;50;50;1.257020831;0;0;0;0
321.71195;-0.0239585191;-0.02370407991;0.0008201611927;-14.98828125;0;1;1;1;0.01171875;7.006492322e-45;1;0.009999999776;9.999999747e-05;50;50;1.243589759;0;0;0;0
321.713;-0.0239585191;-0.02370407991;0.0008201611927;-14.98828125;0;1;1;1;0.01171875;7.006492322e-45;1;0.009999999776;9.999999747e-05;50;50;1.221001267;0;0;0;0
321.71405;-0.0239585191;-0.02370407991;0.0008201611927;-14.98828125;0;1;1;1;0.01171875;7.006492322e-45;1;0.009999999776;9.999999747e-05;50;50;1.205738664;0;0;0;0
321.7151;-0.0239585191;-0.02370407991;0.0008201611927;-14.98828125;0;1;1;1;0.01171875;7.006492322e-45;1;0.009999999776;9.999999747e-05;50;50;1.206349254;0;0;0;0
321.7158;-0.0239585191;-0.02370407991;0.0008201611927;-14.98828125;0;1;1;1;0.01171875;7.006492322e-45;1;0.009999999776;9.999999747e-05;50;50;1.251526356;0;0;0;0
321.71685;-0.0239585191;-0.02370407991;0.0008201611927;-14.98828125;0;1;1;1;0.01171875;7.006492322e-45;1;0.009999999776;9.999999747e-05;50;50;1.225274682;0;0;0;0
321.7179;-0.0239585191;-0.02370407991;0.0008201611927;-14.98828125;0;1;1;1;0.01171875;7.006492322e-45;1;0.009999999776;9.999999747e-05;50;50;1.235042691;0;0;0;0
321.71895;-0.0239585191;-0.02370407991;0.0008201611927;-14.98828125;0;1;1;1;0.01171875;7.006492322e-45;1;0.009999999776;9.999999747e-05;50;50;1.260073304;0;0;0;0
321.72;-0.0239585191;-0.02370407991;0.0008201611927;-14.98828125;0;1;1;1;0.01171875;7.006492322e-45;1;0.009999999776;9.999999747e-05;50;50;1.310744882;0;0;0;0
321.72105;-0.0239585191;-0.02370407991;0.0008201611927;-14.98828125;0;1;1;1;0.01171875;7.006492322e-45;1;0.009999999776;9.999999747e-05;50;50;1.206959724;0;0;0;0
321.7221;-0.0239585191;-0.02370407991;0.0008201611927;-14.98828125;0;1;1;1;0.01171875;7.006492322e-45;1;0.009999999776;9.999999747e-05;50;50;1.26617837;0;0;0;0
321.7228;-0.0239585191;-0.02370407991;0.0008201611927;-14.98828125;0;1;1;1;0.01171875;7.006492322e-45;1;0.009999999776;9.999999747e-05;50;50;1.217338204;0;0;0;0
321.72385;-0.0239585191;-0.02370407991;0.0008201611927;-14.98828125;0;1;1;1;0.01171875;7.006492322e-45;1;0.009999999776;9.999999747e-05;50;50;1.210622668;0;0;0;0
321.7249;-0.0239585191;-0.02370407991;0.0008201611927;-14.98828125;0;1;1;1;0.01171875;7.006492322e-45;1;0.009999999776;9.999999747e-05;50;50;1.203296661;0;0;0;0
321.72595;-0.0239585191;-0.02370407991;0.0008201611927;-14.98828125;0;1;1;1;0.01171875;7.006492322e-45;1;0.009999999776;9.999999747e-05;50;50;1.197802186;0;0;0;0
321.727;-0.0239585191;-0.02370407991;0.0008201611927;-14.98828125;0;1;1;1;0.01171875;7.006492322e-45;1;0.009999999776;9.999999747e-05;50;50;1.253357887;0;0;0;0
321.72805;-0.0239585191;-0.02370407991;0.0008201611927;-14.98828125;0;1;1;1;0.01171875;7.006492322e-45;1;0.009999999776;9.999999747e-05;50;50;1.26617837;0;0;0;0
321.7291;-0.0239585191;-0.02370407991;0.0008201611927;-14.98828125;0;1;1;1;0.01171875;7.006492322e-45;1;0.009999999776;9.999999747e-05;50;50;1.251526356;0;0;0;0
321.7298;-0.0239585191;-0.02370407991;0.0008201611927;-14.98828125;0;1;1;1;0.01171875;7.006492322e-45;1;0.009999999776;9.999999747e-05;50;50;1.222222209;0;0;0;0
321.73085;-0.0239585191;-0.02370407991;0.0008201611927;-14.98828125;0;1;1;1;0.01171875;7.006492322e-45;1;0.009999999776;9.999999747e-05;50;50;1.221001267;0;0;0;0
321.7319;-0.0239585191;-0.02370407991;0.0008201611927;-14.98828125;0;1;1;1;0.01171875;7.006492322e-45;1;0.009999999776;9.999999747e-05;50;50;1.227106214;0;0;0;0
321.73295;-0.0239585191;-0.02370407991;0.0008201611927;-14.98828125;0;1;1;1;0.01171875;7.006492322e-45;1;0.009999999776;9.999999747e-05;50;50;1.209401727;0;0;0;0
321.734;-0.0239585191;-0.02370407991;0.0008201611927;-14.98828125;0;1;1;1;0.01171875;7.006492322e-45;1;0.009999999776;9.999999747e-05;50;50;1.19108665;0;0;0;0
321.73505;-0.0239585191;-0.02370407991;0.0008201611927;-14.98828125;0;1;1;1;0.01171875;7.006492322e-45;1;0.009999999776;9.999999747e-05;50;50;1.167887688;0;0;0;0
321.73575;-0.0239585191;-0.02370407991;0.0008201611927;-14.98828125;0;1;1;1;0.01171875;7.006492322e-45;1;0.009999999776;9.999999747e-05;50;50;1.178876638;0;0;0;0
321.7368;-0.0239585191;-0.02370407991;0.0008201611927;-14.98828125;0;1;1;1;0.01171875;7.006492322e-45;1;0.009999999776;9.999999747e-05;50;50;1.228937745;0;0;0;0
321.73785;-0.0239585191;-0.02370407991;0.0008201611927;-14.98828125;0;1;1;1;0.01171875;7.006492322e-45;1;0.009999999776;9.999999747e-05;50;50;1.237484694;0;0;0;0
321.7389;-0.0239585191;-0.02370407991;0.0008201611927;-14.98828125;0;1;1;1;0.01171875;7.006492322e-45;1;0.009999999776;9.999999747e-05;50;50;1.233211279;0;0;0;0
321.73995;-0.0239585191;-0.02370407991;0.0008201611927;-14.98828125;0;1;1;1;0.01171875;7.006492322e-45;1;0.009999999776;9.999999747e-05;50;50;1.225274682;0;0;0;0
321.741;-0.0239585191;-0.02370407991;0.0008201611927;-14.98828125;0;1;1;1;0.01171875;7.006492322e-45;1;0.009999999776;9.999999747e-05;50;50;1.225274682;0;0;0;0
321.74205;-0.0239585191;-0.02370407991;0.0008201611927;-14.98828125;0;1;1;1;0.01171875;7.006492322e-45;1;0.009999999776;9.999999747e-05;50;50;1.227106214;0;0;0;0
321.74275;-0.0239585191;-0.02370407991;0.0008201611927;-14.98828125;0;1;1;1;0.01171875;7.006492322e-45;1;0.009999999776;9.999999747e-05;50;50;1.289377332;0;0;0;0
321.7438;-0.0239585191;-0.02370407991;0.0008201611927;-14.98828125;0;1;1;1;0.01171875;7.006492322e-45;1;0.009999999776;9.999999747e-05;50;50;1.272283316;0;0;0;0
321.74485;-0.0239585191;-0.02370407991;0.0008201611927;-14.98828125;0;1;1;1;0.01171875;7.006492322e-45;1;0.009999999776;9.999999747e-05;50;50;1.249084234;0;0;0;0
321.7459;-0.0239585191;-0.02370407991;0.0008201611927;-14.98828125;0;1;1;1;0.01171875;7.006492322e-45;1;0.009999999776;9.999999747e-05;50;50;1.26556778;0;0;0;0
321.74695;-0.0239585191;-0.02370407991;0.0008201611927;-14.98828125;0;1;1;1;0.01171875;7.006492322e-45;1;0.009999999776;9.999999747e-05;50;50;1.289377332;0;0;0;0
321.748;-0.0239585191;-0.02370407991;0.0008201611927;-14.98828125;0;1;1;1;0.01171875;7.006492322e-45;1;0.009999999776;9.999999747e-05;50;50;1.236874223;0;0;0;0
321.74905;-0.0239585191;-0.02370407991;0.0008201611927;-14.98828125;0;1;1;1;0.01171875;7.006492322e-45;1;0.009999999776;9.999999747e-05;50;50;1.224053741;0;0;0;0
321.74975;-0.0239585191;-0.02370407991;0.0008201611927;-14.98828125;0;1;1;1;0.01171875;7.006492322e-45;1;0.009999999776;9.999999747e-05;50;50;1.18070817;0;0;0;0
321.7508;-0.0239585191;-0.02370407991;0.0008201611927;-14.98828125;0;1;1;1;0.01171875;7.006492322e-45;1;0.009999999776;9.999999747e-05;50;50;1.184981704;0;0;0;0
321.75185;-0.0239585191;-0.02370407991;0.0008201611927;-14.98828125;0;1;1;1;0.01171875;7.006492322e-45;1;0.009999999776;9.999999747e-05;50;50;1.239926696;0;0;0;0
321.7529;-0.0239585191;-0.02370407991;0.0008201611927;-14.98828125;0;1;1;1;0.01171875;7.006492322e-45;1;0.009999999776;9.999999747e-05;50;50;1.209401727;0;0;0;0
321.75395;-0.0239585191;-0.02370407991;0.0008201611927;-14.98828125;0;1;1;1;0.01171875;7.006492322e-45;1;0.009999999776;9.999999747e-05;50;50;1.242368698;0;0;0;0
321.755;-0.0239585191;-0.02370407991;0.0008201611927;-14.98828125;0;1;1;1;0.01171875;7.006492322e-45;1;0.009999999776;9.999999747e-05;50;50;1.250915766;0;0;0;0
321.75605;-0.0239585191;-0.02370407991;0.0008201611927;-14.98828125;0;1;1;1;0.01171875;7.006492322e-45;1;0.009999999776;9.999999747e-05;50;50;1.305860877;0;0;0;0
321.75675;-0.0239585191;-0.02370407991;0.0008201611927;-14.98828125;0;1;1;1;0.01171875;7.006492322e-45;1;0.009999999776;9.999999747e-05;50;50;1.23382175;0;0;0;0
321.7578;-0.0239585191;-0.02370407991;0.0008201611927;-14.98828125;0;1;1;1;0.01171875;7.006492322e-45;1;0.009999999776;9.999999747e-05;50;50;1.218559265;0;0;0;0
321.75885;-0.0239585191;-0.02370407991;0.0008201611927;-14.98828125;0;1;1;1;0.01171875;7.006492322e-45;1;0.009999999776;9.999999747e-05;50;50;1.214285731;0;0;0;0
321.7599;-0.0239585191;-0.02370407991;0.0008201611927;-14.98828125;0;1;1;1;0.01171875;7.006492322e-45;1;0.009999999776;9.999999747e-05;50;50;1.222222209;0;0;0;0
321.76095;-0.0239585191;-0.02370407991;0.0008201611927;-14.98828125;0;1;1;1;0.01171875;7.006492322e-45;1;0.009999999776;9.999999747e-05;50;50;1.213064671;0;0;0;0
321.762;-0.0239585191;-0.02370407991;0.0008201611927;-14.98828125;0;1;1;1;0.01171875;7.006492322e-45;1;0.009999999776;9.999999747e-05;50;50;1.233211279;0;0;0;0
321.7627;-0.0239585191;-0.02370407991;0.0008201611927;-14.98828125;0;1;1;1;0.01171875;7.006492322e-45;1;0.009999999776;9.999999747e-05;50;50;1.275335789;0;0;0;0
321.76375;-0.0239585191;-0.02370407991;0.0008201611927;-14.98828125;0;1;1;1;0.01171875;7.006492322e-45;1;0.009999999776;9.999999747e-05;50;50;1.272283316;0;0;0;0
321.7648;-0.0239585191;-0.02370407991;0.0008201611927;-14.98828125;0;1;1;1;0.01171875;7.006492322e-45;1;0.009999999776;9.999999747e-05;50;50;1.264957309;0;0;0;0
321.76585;-0.0239585191;-0.02370407991;0.0008201611927;-14.98828125;0;1;1;1;0.01171875;7.006492322e-45;1;0.009999999776;9.999999747e-05;50;50;1.241758227;0;0;0;0
321.7669;-0.0239585191;-0.02370407991;0.0008201611927;-14.98828125;0;1;1;1;0.01171875;7.006492322e-45;1;0.009999999776;9.999999747e-05;50;50;1.229548216;0;0;0;0
321.76795;-0.0239585191;-0.02370407991;0.0008201611927;-14.98828125;0;1;1;1;0.01171875;7.006492322e-45;1;0.009999999776;9.999999747e-05;50;50;1.204517722;0;0;0;0
321.769;-0.0239585191;-0.02370407991;0.0008201611927;-14.98828125;0;1;1;1;0.01171875;7.006492322e-45;1;0.009999999776;9.999999747e-05;50;50;1.195360184;0;0;0;0
321.7697;-0.0239585191;-0.02370407991;0.0008201611927;-14.98828125;0;1;1;1;0.01171875;7.006492322e-45;1;0.009999999776;9.999999747e-05;50;50;1.236263752;0;0;0;0
321.77075;-0.0239585191;-0.02370407991;0.0008201611927;-14.98828125;0;1;1;1;0.01171875;7.006492322e-45;1;0.009999999776;9.999999747e-05;50;50;1.253968358;0;0;0;0
321.7718;-0.0239585191;-0.02370407991;0.0008201611927;-14.98828125;0;1;1;1;0.01171875;7.006492322e-45;1;0.009999999776;9.999999747e-05;50;50;1.269230843;0;0;0;0
321.77285;-0.0239585191;-0.02370407991;0.0008201611927;-14.98828125;0;1;1;1;0.01171875;7.006492322e-45;1;0.009999999776;9.999999747e-05;50;50;1.236874223;0;0;0;0
321.7739;-0.0239585191;-0.02370407991;0.0008201611927;-14.98828125;0;1;1;1;0.01171875;7.006492322e-45;1;0.009999999776;9.999999747e-05;50;50;1.217338204;0;0;0;0
321.77495;-0.0239585191;-0.02370407991;0.0008201611927;-14.98828125;0;1;1;1;0.01171875;7.006492322e-45;1;0.009999999776;9.999999747e-05;50;50;1.2124542;0;0;0;0
321.776;-0.0239585191;-0.02370407991;0.0008201611927;-14.98828125;0;1;1;1;0.01171875;7.006492322e-45;1;0.009999999776;9.999999747e-05;50;50;1.206959724;0;0;0;0
321.7767;-0.0239585191;-0.02370407991;0.0008201611927;-14.98828125;0;1;1;1;0.01171875;7.006492322e-45;1;0.009999999776;9.999999747e-05;50;50;1.200854659;0;0;0;0
321.77775;-0.0239585191;-0.02370407991;0.0008201611927;-14.98828125;0;1;1;1;0.01171875;7.006492322e-45;1;0.009999999776;9.999999747e-05;50;50;1.271062374;0;0;0;0
321.7788;-0.0239585191;-0.02370407991;0.0008201611927;-14.98828125;0;1;1;1;0.01171875;7.006492322e-45;1;0.009999999776;9.999999747e-05;50;50;1.261294365;0;0;0;0
321.77985;-0.0239585191;-0.02370407991;0.0008201611927;-14.98828125;0;1;1;1;0.01171875;7.006492322e-45;1;0.009999999776;9.999999747e-05;50;50;1.249694705;0;0;0;0
321.7809;-0.0239585191;-0.02370407991;0.0008201611927;-14.98828125;0;1;1;1;0.01171875;7.006492322e-45;1;0.009999999776;9.999999747e-05;50;50;1.271062374;0;0;0;0
321.78195;-0.0239585191;-0.02370407991;0.0008201611927;-14.98828125;0;1;1;1;0.01171875;7.006492322e-45;1;0.009999999776;9.999999747e-05;50;50;1.251526356;0;0;0;0
321.783;-0.0239585191;-0.02370407991;0.0008201611927;-14.98828125;0;1;1;1;0.01171875;7.006492322e-45;1;0.009999999776;9.999999747e-05;50;50;1.205128193;0;0;0;0
321.7837;-0.0239585191;-0.02370407991;0.0008201611927;-14.98828125;0;1;1;1;0.01171875;7.006492322e-45;1;0.009999999776;9.999999747e-05;50;50;1.241147757;0;0;0;0
321.78475;-0.0239585191;-0.02370407991;0.0008201611927;-14.98828125;0;1;1;1;0.01171875;7.006492322e-45;1;0.009999999776;9.999999747e-05;50;50;1.231990218;0;0;0;0
321.7858;-0.0239585191;-0.02370407991;0.0008201611927;-14.98828125;0;1;1;1;0.01171875;7.006492322e-45;1;0.009999999776;9.999999747e-05;50;50;1.210012197;0;0;0;0
321.78685;-0.0239585191;-0.02370407991;0.0008201611927;-14.98828125;0;1;1;1;0.01171875;7.006492322e-45;1;0.009999999776;9.999999747e-05;50;50;1.204517722;0;0;0;0
321.7879;-0.0239585191;-0.02370407991;0.0008201611927;-14.98828125;0;1;1;1;0.01171875;7.006492322e-45;1;0.009999999776;9.999999747e-05;50;50;1.224664211;0;0;0;0
321.78895;-0.0239585191;-0.02370407991;0.0008201611927;-14.98828125;0;1;1;1;0.01171875;7.006492322e-45;1;0.009999999776;9.999999747e-05;50;50;1.26617837;0;0;0;0
321.78965;-0.0239585191;-0.02370407991;0.0008201611927;-14.98828125;0;1;1;1;0.01171875;7.006492322e-45;1;0.009999999776;9.999999747e-05;50;50;1.236874223;0;0;0;0
321.7907;-0.0239585191;-0.02370407991;0.0008201611927;-14.98828125;0;1;1;1;0.01171875;7.006492322e-45;1;0.009999999776;9.999999747e-05;50;50;1.213064671;0;0;0;0
321.79175;-0.0239585191;-0.02370407991;0.0008201611927;-14.98828125;0;1;1;1;0.01171875;7.006492322e-45;1;0.009999999776;9.999999747e-05;50;50;1.216117263;0;0;0;0
321.7928;-0.0239585191;-0.02370407991;0.0008201611927;-14.98828125;0;1;1;1;0.01171875;7.006492322e-45;1;0.009999999776;9.999999747e-05;50;50;1.204517722;0;0;0;0
321.79385;-0.0239585191;-0.02370407991;0.0008201611927;-14.98828125;0;1;1;1;0.01171875;7.006492322e-45;1;0.009999999776;9.999999747e-05;50;50;1.188034177;0;0;0;0
321.7949;-0.0239585191;-0.02370407991;0.0008201611927;-14.98828125;0;1;1;1;0.01171875;7.006492322e-45;1;0.009999999776;9.999999747e-05;50;50;1.194139242;0;0;0;0
321.79595;-0.0239585191;-0.02370407991;0.0008201611927;-14.98828125;0;1;1;1;0.01171875;7.006492322e-45;1;0.009999999776;9.999999747e-05;50;50;1.188034177;0;0;0;0
321.79665;-0.0239585191;-0.02370407991;0.0008201611927;-14.98828125;0;1;1;1;0.01171875;7.006492322e-45;1;0.009999999776;9.999999747e-05;50;50;1.284493327;0;0;0;0
321.7977;-0.0239585191;-0.02370407991;0.0008201611927;-14.98828125;0;1;1;1;0.01171875;7.006492322e-45;1;0.009999999776;9.999999747e-05;50;50;1.2551893;0;0;0;0
321.79875;-0.0239585191;-0.02370407991;0.0008201611927;-14.98828125;0;1;1;1;0.01171875;7.006492322e-45;1;0.009999999776;9.999999747e-05;50;50;1.270451784;0;0;0;0
321.7998;-0.0239585191;-0.02370407991;0.0008201611927;-14.98828125;0;1;1;1;0.01171875;7.006492322e-45;1;0.009999999776;9.999999747e-05;50;50;1.26617837;0;0;0;0
321.80085;-0.0239585191;-0.02370407991;0.0008201611927;-14.98828125;0;1;1;1;0.01171875;7.006492322e-45;1;0.009999999776;9.999999747e-05;50;50;1.263125896;0;0;0;0
321.8019;-0.0239585191;-0.02370407991;0.0008201611927;-14.98828125;0;1;1;1;0.01171875;7.006492322e-45;1;0.009999999776;9.999999747e-05;50;50;1.243589759;0;0;0;0
321.80295;-0.0239585191;-0.02370407991;0.0008201611927;-14.98828125;0;1;1;1;0.01171875;7.006492322e-45;1;0.009999999776;9.999999747e-05;50;50;1.229548216;0;0;0;0
321.80365;-0.0239585191;-0.02370407991;0.0008201611927;-14.98828125;0;1;1;1;0.01171875;7.006492322e-45;1;0.009999999776;9.999999747e-05;50;50;1.257631302;0;0;0;0
321.8047;-0.0239585191;-0.02370407991;0.0008201611927;-14.98828125;0;1;1;1;0.01171875;7.006492322e-45;1;0.009999999776;9.999999747e-05;50;50;1.293650866;0;0;0;0
321.80575;-0.0239585191;-0.02370407991;0.0008201611927;-14.98828125;0;1;1;1;0.01171875;7.006492322e-45;1;0.009999999776;9.999999747e-05;50;50;1.289987803;0;0;0;0
321.8068;-0.0239585191;-0.02370407991;0.0008201611927;-14.98828125;0;1;1;1;0.01171875;7.006492322e-45;1;0.009999999776;9.999999747e-05;50;50;1.281440854;0;0;0;0
321.80785;-0.0239585191;-0.02370407991;0.0008201611927;-14.98828125;0;1;1;1;0.01171875;7.006492322e-45;1;0.009999999776;9.999999747e-05;50;50;1.280830383;0;0;0;0
321.8089;-0.0239585191;-0.02370407991;0.0008201611927;-14.98828125;0;1;1;1;0.01171875;7.006492322e-45;1;0.009999999776;9.999999747e-05;50;50;1.235042691;0;0;0;0
321.80995;-0.0239585191;-0.02370407991;0.0008201611927;-14.98828125;0;1;1;1;0.01171875;7.006492322e-45;1;0.009999999776;9.999999747e-05;50;50;1.232600689;0;0;0;0
321.81065;-0.0239585191;-0.02370407991;0.0008201611927;-14.98828125;0;1;1;1;0.01171875;7.006492322e-45;1;0.009999999776;9.999999747e-05;50;50;1.198412657;0;0;0;0
321.8117;-0.0239585191;-0.02370407991;0.0008201611927;-14.98828125;0;1;1;1;0.01171875;7.006492322e-45;1;0.009999999776;9.999999747e-05;50;50;1.180097699;0;0;0;0
321.81275;-0.0239585191;-0.02370407991;0.0008201611927;-14.98828125;0;1;1;1;0.01171875;7.006492322e-45;1;0.009999999776;9.999999747e-05;50;50;1.19169724;0;0;0;0
321.8138;-0.0239585191;-0.02370407991;0.0008201611927;-14.98828125;0;1;1;1;0.01171875;7.006492322e-45;1;0.009999999776;9.999999747e-05;50;50;1.172771692;0;0;0;0
321.81485;-0.0239585191;-0.02370407991;0.0008201611927;-14.98828125;0;1;1;1;0.01171875;7.006492322e-45;1;0.009999999776;9.999999747e-05;50;50;1.225274682;0;0;0;0
321.8159;-0.0239585191;-0.02370407991;0.0008201611927;-14.98828125;0;1;1;1;0.01171875;7.006492322e-45;1;0.009999999776;9.999999747e-05;50;50;1.271062374;0;0;0;0
321.8166;-0.0239585191;-0.02370407991;0.0008201611927;-14.98828125;0;1;1;1;0.01171875;7.006492322e-45;1;0.009999999776;9.999999747e-05;50;50;1.222222209;0;0;0;0
321.81765;-0.0239585191;-0.02370407991;0.0008201611927;-14.98828125;0;1;1;1;0.01171875;7.006492322e-45;1;0.009999999776;9.999999747e-05;50;50;1.218559265;0;0;0;0
321.8187;-0.0239585191;-0.02370407991;0.0008201611927;-14.98828125;0;1;1;1;0.01171875;7.006492322e-45;1;0.009999999776;9.999999747e-05;50;50;1.217948675;0;0;0;0
321.81975;-0.0239585191;-0.02370407991;0.0008201611927;-14.98828125;0;1;1;1;0.01171875;7.006492322e-45;1;0.009999999776;9.999999747e-05;50;50;1.216727734;0;0;0;0
321.8208;-0.0239585191;-0.02370407991;0.0008201611927;-14.98828125;0;1;1;1;0.01171875;7.006492322e-45;1;0.009999999776;9.999999747e-05;50;50;1.213064671;0;0;0;0
321.82185;-0.0239585191;-0.02370407991;0.0008201611927;-14.98828125;0;1;1;1;0.01171875;7.006492322e-45;1;0.009999999776;9.999999747e-05;50;50;1.216117263;0;0;0;0
321.8229;-0.0239585191;-0.02370407991;0.0008201611927;-14.98828125;0;1;1;1;0.01171875;7.006492322e-45;1;0.009999999776;9.999999747e-05;50;50;1.199633718;0;0;0;0
321.8236;-0.0239585191;-0.02370407991;0.0008201611927;-14.98828125;0;1;1;1;0.01171875;7.006492322e-45;1;0.009999999776;9.999999747e-05;50;50;1.227716684;0;0;0;0
321.82465;-0.0239585191;-0.02370407991;0.0008201611927;-14.98828125;0;1;1;1;0.01171875;7.006492322e-45;1;0.009999999776;9.999999747e-05;50;50;1.260683775;0;0;0;0
321.8257;-0.0239585191;-0.02370407991;0.0008201611927;-14.98828125;0;1;1;1;0.01171875;7.006492322e-45;1;0.009999999776;9.999999747e-05;50;50;1.241147757;0;0;0;0
321.82675;-0.0239585191;-0.02370407991;0.0008201611927;-14.98828125;0;1;1;1;0.01171875;7.006492322e-45;1;0.009999999776;9.999999747e-05;50;50;1.252747297;0;0;0;0
321.8278;-0.0239585191;-0.02370407991;0.0008201611927;-14.98828125;0;1;1;1;0.01171875;7.006492322e-45;1;0.009999999776;9.999999747e-05;50;50;1.239926696;0;0;0;0
321.82885;-0.0239585191;-0.02370407991;0.0008201611927;-14.98828125;0;1;1;1;0.01171875;7.006492322e-45;1;0.009999999776;9.999999747e-05;50;50;1.210012197;0;0;0;0
321.8299;-0.0239585191;-0.02370407991;0.0008201611927;-14.98828125;0;1;1;1;0.01171875;7.006492322e-45;1;0.009999999776;9.999999747e-05;50;50;1.202686191;0;0;0;0
321.8306;-0.0239585191;-0.02370407991;0.0008201611927;-14.98828125;0;1;1;1;0.01171875;7.006492322e-45;1;0.009999999776;9.999999747e-05;50;50;1.232600689;0;0;0;0
321.83165;-0.0239585191;-0.02370407991;0.0008201611927;-14.98828125;0;1;1;1;0.01171875;7.006492322e-45;1;0.009999999776;9.999999747e-05;50;50;1.248473763;0;0;0;0
321.8327;-0.0239585191;-0.02370407991;0.0008201611927;-14.98828125;0;1;1;1;0.01171875;7.006492322e-45;1;0.009999999776;9.999999747e-05;50;50;1.284493327;0;0;0;0
321.83375;-0.0239585191;-0.02370407991;0.0008201611927;-14.98828125;0;1;1;1;0.01171875;7.006492322e-45;1;0.009999999776;9.999999747e-05;50;50;1.243589759;0;0;0;0
321.8348;-0.0239585191;-0.02370407991;0.0008201611927;-14.98828125;0;1;1;1;0.01171875;7.006492322e-45;1;0.009999999776;9.999999747e-05;50;50;1.232600689;0;0;0;0
321.83585;-0.0239585191;-0.02370407991;0.0008201611927;-14.98828125;0;1;1;1;0.01171875;7.006492322e-45;1;0.009999999776;9.999999747e-05;50;50;1.225274682;0;0;0;0
321.8369;-0.0239585191;-0.02370407991;0.0008201611927;-14.98828125;0;1;1;1;0.01171875;7.006492322e-45;1;0.009999999776;9.999999747e-05;50;50;1.231990218;0;0;0;0
321.8376;-0.0239585191;-0.02370407991;0.0008201611927;-14.98828125;0;1;1;1;0.01171875;7.006492322e-45;1;0.009999999776;9.999999747e-05;50;50;1.198412657;0;0;0;0
321.83865;-0.0239585191;-0.02370407991;0.0008201611927;-14.98828125;0;1;1;1;0.01171875;7.006492322e-45;1;0.009999999776;9.999999747e-05;50;50;1.24420023;0;0;0;0
321.8397;-0.0239585191;-0.02370407991;0.0008201611927;-14.98828125;0;1;1;1;0.01171875;7.006492322e-45;1;0.009999999776;9.999999747e-05;50;50;1.243589759;0;0;0;0
321.84075;-0.0239585191;-0.02370407991;0.0008201611927;-14.98828125;0;1;1;1;0.01171875;7.006492322e-45;1;0.009999999776;9.999999747e-05;50;50;1.273504376;0;0;0;0
321.8418;-0.0239585191;-0.02370407991;0.0008201611927;-14.98828125;0;1;1;1;0.01171875;7.006492322e-45;1;0.009999999776;9.999999747e-05;50;50;1.278388381;0;0;0;0
321.84285;-0.0239585191;-0.02370407991;0.0008201611927;-14.98828125;0;1;1;1;0.01171875;7.006492322e-45;1;0.009999999776;9.999999747e-05;50;50;1.278998852;0;0;0;0
321.84355;-0.0239585191;-0.02370407991;0.0008201611927;-14.98828125;0;1;1;1;0.01171875;7.006492322e-45;1;0.009999999776;9.999999747e-05;50;50;1.243589759;0;0;0;0
321.8446;-0.0239585191;-0.02370407991;0.0008201611927;-14.98828125;0;1;1;1;0.01171875;7.006492322e-45;1;0.009999999776;9.999999747e-05;50;50;1.239926696;0;0;0;0
321.84565;-0.0239585191;-0.02370407991;0.0008201611927;-14.98828125;0;1;1;1;0.01171875;7.006492322e-45;1;0.009999999776;9.999999747e-05;50;50;1.226495743;0;0;0;0
321.8467;-0.0239585191;-0.02370407991;0.0008201611927;-14.98828125;0;1;1;1;0.01171875;7.006492322e-45;1;0.009999999776;9.999999747e-05;50;50;1.202686191;0;0;0;0
321.84775;-0.0239585191;-0.02370407991;0.0008201611927;-14.98828125;0;1;1;1;0.01171875;7.006492322e-45;1;0.009999999776;9.999999747e-05;50;50;1.205738664;0;0;0;0
321.8488;-0.0239585191;-0.02370407991;0.0008201611927;-14.98828125;0;1;1;1;0.01171875;7.006492322e-45;1;0.009999999776;9.999999747e-05;50;50;1.198412657;0;0;0;0
321.84985;-0.0239585191;-0.02370407991;0.0008201611927;-14.98828125;0;1;1;1;0.01171875;7.006492322e-45;1;0.009999999776;9.999999747e-05;50;50;1.20207572;0;0;0;0
321.85055;-0.0239585191;-0.02370407991;0.0008201611927;-14.98828125;0;1;1;1;0.01171875;7.006492322e-45;1;0.009999999776;9.999999747e-05;50;50;1.238705754;0;0;0;0
321.8516;-0.0239585191;-0.02370407991;0.0008201611927;-14.98828125;0;1;1;1;0.01171875;7.006492322e-45;1;0.009999999776;9.999999747e-05;50;50;1.231990218;0;0;0;0
321.85265;-0.0239585191;-0.02370407991;0.0008201611927;-14.98828125;0;1;1;1;0.01171875;7.006492322e-45;1;0.009999999776;9.999999747e-05;50;50;1.209401727;0;0;0;0
321.8537;-0.0239585191;-0.02370407991;0.0008201611927;-14.98828125;0;1;1;1;0.01171875;7.006492322e-45;1;0.009999999776;9.999999747e-05;50;50;1.194139242;0;0;0;0
321.85475;-0.0239585191;-0.02370407991;0.0008201611927;-14.98828125;0;1;1;1;0.01171875;7.006492322e-45;1;0.009999999776;9.999999747e-05;50;50;1.197191715;0;0;0;0
321.8558;-0.0239585191;-0.02370407991;0.0008201611927;-14.98828125;0;1;1;1;0.01171875;7.006492322e-45;1;0.009999999776;9.999999747e-05;50;50;1.186202645;0;0;0;0
321.85685;-0.0239585191;-0.02370407991;0.0008201611927;-14.98828125;0;1;1;1;0.01171875;7.006492322e-45;1;0.009999999776;9.999999747e-05;50;50;1.184981704;0;0;0;0
321.85755;-0.0239585191;-0.02370407991;0.0008201611927;-14.98828125;0;1;1;1;0.01171875;7.006492322e-45;1;0.009999999776;9.999999747e-05;50;50;1.279609323;0;0;0;0
321.8586;-0.0239585191;-0.02370407991;0.0008201611927;-14.98828125;0;1;1;1;0.01171875;7.006492322e-45;1;0.009999999776;9.999999747e-05;50;50;1.221611738;0;0;0;0
321.85965;-0.0239585191;-0.02370407991;0.0008201611927;-14.98828125;0;1;1;1;0.01171875;7.006492322e-45;1;0.009999999776;9.999999747e-05;50;50;1.257020831;0;0;0;0
321.8607;-0.0239585191;-0.02370407991;0.0008201611927;-14.98828125;0;1;1;1;0.01171875;7.006492322e-45;1;0.009999999776;9.999999747e-05;50;50;1.261294365;0;0;0;0
321.86175;-0.0239585191;-0.02370407991;0.0008201611927;-14.98828125;0;1;1;1;0.01171875;7.006492322e-45;1;0.009999999776;9.999999747e-05;50;50;1.247863293;0;0;0;0
321.8628;-0.0239585191;-0.02370407991;0.0008201611927;-14.98828125;0;1;1;1;0.01171875;7.006492322e-45;1;0.009999999776;9.999999747e-05;50;50;1.251526356;0;0;0;0
321.86385;-0.0239585191;-0.02370407991;0.0008201611927;-14.98828125;0;1;1;1;0.01171875;7.006492322e-45;1;0.009999999776;9.999999747e-05;50;50;1.253968358;0;0;0;0
321.86455;-0.0239585191;-0.02370407991;0.0008201611927;-14.98828125;0;1;1;1;0.01171875;7.006492322e-45;1;0.009999999776;9.999999747e-05;50;50;1.257020831;0;0;0;0
321.8656;-0.0239585191;-0.02370407991;0.0008201611927;-14.98828125;0;1;1;1;0.01171875;7.006492322e-45;1;0.009999999776;9.999999747e-05;50;50;1.269841313;0;0;0;0
321.86665;-0.0239585191;-0.02370407991;0.0008201611927;-14.98828125;0;1;1;1;0.01171875;7.006492322e-45;1;0.009999999776;9.999999747e-05;50;50;1.271672845;0;0;0;0
321.8677;-0.0239585191;-0.02370407991;0.0008201611927;-14.98828125;0;1;1;1;0.01171875;7.006492322e-45;1;0.009999999776;9.999999747e-05;50;50;1.270451784;0;0;0;0
321.86875;-0.0239585191;-0.02370407991;0.0008201611927;-14.98828125;0;1;1;1;0.01171875;7.006492322e-45;1;0.009999999776;9.999999747e-05;50;50;1.293650866;0;0;0;0
321.8698;-0.0239585191;-0.02370407991;0.0008201611927;-14.98828125;0;1;1;1;0.01171875;7.006492322e-45;1;0.009999999776;9.999999747e-05;50;50;1.24420023;0;0;0;0
321.8705;-0.0239585191;-0.02370407991;0.0008201611927;-14.98828125;0;1;1;1;0.01171875;7.006492322e-45;1;0.009999999776;9.999999747e-05;50;50;1.199633718;0;0;0;0
321.87155;-0.0239585191;-0.02370407991;0.0008201611927;-14.98828125;0;1;1;1;0.01171875;7.006492322e-45;1;0.009999999776;9.999999747e-05;50;50;1.192307711;0;0;0;0
321.8726;-0.0239585191;-0.02370407991;0.0008201611927;-14.98828125;0;1;1;1;0.01171875;7.006492322e-45;1;0.009999999776;9.999999747e-05;50;50;1.182539701;0;0;0;0
321.87365;-0.0239585191;-0.02370407991;0.0008201611927;-14.98828125;0;1;1;1;0.01171875;7.006492322e-45;1;0.009999999776;9.999999747e-05;50;50;1.208791256;0;0;0;0
321.8747;-0.0239585191;-0.02370407991;0.0008201611927;-14.98828125;0;1;1;1;0.01171875;7.006492322e-45;1;0.009999999776;9.999999747e-05;50;50;1.2448107;0;0;0;0
321.87575;-0.0239585191;-0.02370407991;0.0008201611927;-14.98828125;0;1;1;1;0.01171875;7.006492322e-45;1;0.009999999776;9.999999747e-05;50;50;1.263125896;0;0;0;0
321.8768;-0.0239585191;-0.02370407991;0.0008201611927;-14.98828125;0;1;1;1;0.01171875;7.006492322e-45;1;0.009999999776;9.999999747e-05;50;50;1.30891335;0;0;0;0
321.8775;-0.0239585191;-0.02370407991;0.0008201611927;-14.98828125;0;1;1;1;0.01171875;7.006492322e-45;1;0.009999999776;9.999999747e-05;50;50;1.228327274;0;0;0;0
321.87855;-0.0239585191;-0.02370407991;0.0008201611927;-14.98828125;0;1;1;1;0.01171875;7.006492322e-45;1;0.009999999776;9.999999747e-05;50;50;1.224053741;0;0;0;0
321.8796;-0.0239585191;-0.02370407991;0.0008201611927;-14.98828125;0;1;1;1;0.01171875;7.006492322e-45;1;0.009999999776;9.999999747e-05;50;50;1.207570195;0;0;0;0
321.88065;-0.0239585191;-0.02370407991;0.0008201611927;-14.98828125;0;1;1;1;0.01171875;7.006492322e-45;1;0.009999999776;9.999999747e-05;50;50;1.210622668;0;0;0;0
321.8817;-0.0239585191;-0.02370407991;0.0008201611927;-14.98828125;0;1;1;1;0.01171875;7.006492322e-45;1;0.009999999776;9.999999747e-05;50;50;1.218559265;0;0;0;0
321.88275;-0.0239585191;-0.02370407991;0.0008201611927;-14.98828125;0;1;1;1;0.01171875;7.006492322e-45;1;0.009999999776;9.999999747e-05;50;50;1.219780207;0;0;0;0
321.8838;-0.0239585191;-0.02370407991;0.0008201611927;-14.98828125;0;1;1;1;0.01171875;7.006492322e-45;1;0.009999999776;9.999999747e-05;50;50;1.208180666;0;0;0;0
321.8845;-0.0239585191;-0.02370407991;0.0008201611927;-14.98828125;0;1;1;1;0.01171875;7.006492322e-45;1;0.009999999776;9.999999747e-05;50;50;1.313186884;0;0;0;0
321.88555;-0.0239585191;-0.02370407991;0.0008201611927;-14.98828125;0;1;1;1;0.01171875;7.006492322e-45;1;0.009999999776;9.999999747e-05;50;50;1.246642232;0;0;0;0
321.8866;-0.0239585191;-0.02370407991;0.0008201611927;-14.98828125;0;1;1;1;0.01171875;7.006492322e-45;1;0.009999999776;9.999999747e-05;50;50;1.239926696;0;0;0;0
321.88765;-0.0239585191;-0.02370407991;0.0008201611927;-14.98828125;0;1;1;1;0.01171875;7.006492322e-45;1;0.009999999776;9.999999747e-05;50;50;1.220390677;0;0;0;0
321.8887;-0.0239585191;-0.02370407991;0.0008201611927;-14.98828125;0;1;1;1;0.01171875;7.006492322e-45;1;0.009999999776;9.999999747e-05;50;50;1.205738664;0;0;0;0
321.88975;-0.0239585191;-0.02370407991;0.0008201611927;-14.98828125;0;1;1;1;0.01171875;7.006492322e-45;1;0.009999999776;9.999999747e-05;50;50;1.195360184;0;0;0;0
321.8908;-0.0239585191;-0.02370407991;0.0008201611927;-14.98828125;0;1;1;1;0.01171875;7.006492322e-45;1;0.009999999776;9.999999747e-05;50;50;1.197191715;0;0;0;0
321.8915;-0.0239585191;-0.02370407991;0.0008201611927;-14.98828125;0;1;1;1;0.01171875;7.006492322e-45;1;0.009999999776;9.999999747e-05;50;50;1.26617837;0;0;0;0
321.89255;-0.0239585191;-0.02370407991;0.0008201611927;-14.98828125;0;1;1;1;0.01171875;7.006492322e-45;1;0.009999999776;9.999999747e-05;50;50;1.273504376;0;0;0;0
321.8936;-0.0239585191;-0.02370407991;0.0008201611927;-14.98828125;0;1;1;1;0.01171875;7.006492322e-45;1;0.009999999776;9.999999747e-05;50;50;1.246642232;0;0;0;0
321.89465;-0.0239585191;-0.02370407991;0.0008201611927;-14.98828125;0;1;1;1;0.01171875;7.006492322e-45;1;0.009999999776;9.999999747e-05;50;50;1.238095284;0;0;0;0
321.8957;-0.0239585191;-0.02370407991;0.0008201611927;-14.98828125;0;1;1;1;0.01171875;7.006492322e-45;1;0.009999999776;9.999999747e-05;50;50;1.242368698;0;0;0;0
321.89675;-0.0239585191;-0.02370407991;0.0008201611927;-14.98828125;0;1;1;1;0.01171875;7.006492322e-45;1;0.009999999776;9.999999747e-05;50;50;1.233211279;0;0;0;0
321.8978;-0.0239585191;-0.02370407991;0.0008201611927;-14.98828125;0;1;1;1;0.01171875;7.006492322e-45;1;0.009999999776;9.999999747e-05;50;50;1.231379747;0;0;0;0
321.8985;-0.0239585191;-0.02370407991;0.0008201611927;-14.98828125;0;1;1;1;0.01171875;7.006492322e-45;1;0.009999999776;9.999999747e-05;50;50;1.19169724;0;0;0;0
321.89955;-0.0239585191;-0.02370407991;0.0008201611927;-14.98828125;0;1;1;1;0.01171875;7.006492322e-45;1;0.009999999776;9.999999747e-05;50;50;1.250305295;0;0;0;0
321.9006;-0.0239585191;-0.02370407991;0.0008201611927;-14.98828125;0;1;1;1;0.01171875;7.006492322e-45;1;0.009999999776;9.999999747e-05;50;50;1.263736367;0;0;0;0
321.90165;-0.0239585191;-0.02370407991;0.0008201611927;-14.98828125;0;1;1;1;0.01171875;7.006492322e-45;1;0.009999999776;9.999999747e-05;50;50;1.2551893;0;0;0;0
321.9027;-0.0239585191;-0.02370407991;0.0008201611927;-14.98828125;0;1;1;1;0.01171875;7.006492322e-45;1;0.009999999776;9.999999747e-05;50;50;1.313797355;0;0;0;0
321.90375;-0.0239585191;-0.02370407991;0.0008201611927;-14.98828125;0;1;1;1;0.01171875;7.006492322e-45;1;0.009999999776;9.999999747e-05;50;50;1.288766861;0;0;0;0
321.90445;-0.0239585191;-0.02370407991;0.0008201611927;-14.98828125;0;1;1;1;0.01171875;7.006492322e-45;1;0.009999999776;9.999999747e-05;50;50;1.249084234;0;0;0;0
321.9055;-0.0239585191;-0.02370407991;0.0008201611927;-14.98828125;0;1;1;1;0.01171875;7.006492322e-45;1;0.009999999776;9.999999747e-05;50;50;1.22283268;0;0;0;0
321.90655;-0.0239585191;-0.02370407991;0.0008201611927;-14.98828125;0;1;1;1;0.01171875;7.006492322e-45;1;0.009999999776;9.999999747e-05;50;50;1.204517722;0;0;0;0
321.9076;-0.0239585191;-0.02370407991;0.0008201611927;-14.98828125;0;1;1;1;0.01171875;7.006492322e-45;1;0.009999999776;9.999999747e-05;50;50;1.186202645;0;0;0;0
321.90865;-0.0239585191;-0.02370407991;0.0008201611927;-14.98828125;0;1;1;1;0.01171875;7.006492322e-45;1;0.009999999776;9.999999747e-05;50;50;1.184371233;0;0;0;0
321.9097;-0.0239585191;-0.02370407991;0.0008201611927;-14.98828125;0;1;1;1;0.01171875;7.006492322e-45;1;0.009999999776;9.999999747e-05;50;50;1.184371233;0;0;0;0
321.91075;-0.0239585191;-0.02370407991;0.0008201611927;-14.98828125;0;1;1;1;0.01171875;7.006492322e-45;1;0.009999999776;9.999999747e-05;50;50;1.235042691;0;0;0;0
321.91145;-0.0239585191;-0.02370407991;0.0008201611927;-14.98828125;0;1;1;1;0.01171875;7.006492322e-45;1;0.009999999776;9.999999747e-05;50;50;1.243589759;0;0;0;0
321.9125;-0.0239585191;-0.02370407991;0.0008201611927;-14.98828125;0;1;1;1;0.01171875;7.006492322e-45;1;0.009999999776;9.999999747e-05;50;50;1.231379747;0;0;0;0
321.91355;-0.0239585191;-0.02370407991;0.0008201611927;-14.98828125;0;1;1;1;0.01171875;7.006492322e-45;1;0.009999999776;9.999999747e-05;50;50;1.213064671;0;0;0;0
321.9146;-0.0239585191;-0.02370407991;0.0008201611927;-14.98828125;0;1;1;1;0.01171875;7.006492322e-45;1;0.009999999776;9.999999747e-05;50;50;1.216117263;0;0;0;0
321.91565;-0.0239585191;-0.02370407991;0.0008201611927;-14.98828125;0;1;1;1;0.01171875;7.006492322e-45;1;0.009999999776;9.999999747e-05;50;50;1.216727734;0;0;0;0
321.9167;-0.0239585191;-0.02370407991;0.0008201611927;-14.98828125;0;1;1;1;0.01171875;7.006492322e-45;1;0.009999999776;9.999999747e-05;50;50;1.202686191;0;0;0;0
321.91775;-0.0239585191;-0.02370407991;0.0008201611927;-14.98828125;0;1;1;1;0.01171875;7.006492322e-45;1;0.009999999776;9.999999747e-05;50;50;1.188644648;0;0;0;0
