timestamp [s];actual_current [A];target_current [A];motor_torque [N.m];paddle_pos [deg];paddle_speed [deg/s];Compensate gravity;Compensate dry friction);Compensate viscous friction;paddle_pos_filt [deg];paddle_speed_filt [deg/s];Wall;Virtual Spring;Virtual Damping;Cuttoff Frequnecy Angle;Cuttoff Frequnecy Speed;emg_signal;led_0 [0.0-1.0];led_1 [0.0-1.0];led_2 [0.0-1.0];led_3 [0.0-1.0]
857.160804;-0.0239585191;-0.02370407991;0.0008201611927;-14.54882813;0;1;1;1;0.01171875;7.006492322e-45;1;0.009999999776;9.999999747e-05;50;50;1.239316225;0;0;0;0
857.161854;-0.0239585191;-0.02370407991;0.0008201611927;-14.54882813;0;1;1;1;0.01171875;7.006492322e-45;1;0.009999999776;9.999999747e-05;50;50;1.23443222;0;0;0;0
857.162904;-0.0239585191;-0.02370407991;0.0008201611927;-14.54882813;0;1;1;1;0.01171875;7.006492322e-45;1;0.009999999776;9.999999747e-05;50;50;1.233211279;0;0;0;0
857.163954;-0.0239585191;-0.02370407991;0.0008201611927;-14.54882813;0;1;1;1;0.01171875;7.006492322e-45;1;0.009999999776;9.999999747e-05;50;50;1.229548216;0;0;0;0
857.165004;-0.0239585191;-0.02370407991;0.0008201611927;-14.54882813;0;1;1;1;0.01171875;7.006492322e-45;1;0.009999999776;9.999999747e-05;50;50;1.228937745;0;0;0;0
857.165704;-0.0239585191;-0.02370407991;0.0008201611927;-14.54882813;0;1;1;1;0.01171875;7.006492322e-45;1;0.009999999776;9.999999747e-05;50;50;1.216727734;0;0;0;0
857.166754;-0.0239585191;-0.02370407991;0.0008201611927;-14.54882813;0;1;1;1;0.01171875;7.006492322e-45;1;0.009999999776;9.999999747e-05;50;50;1.166056156;0;0;0;0
857.167804;-0.0239585191;-0.02370407991;0.0008201611927;-14.54882813;0;1;1;1;0.01171875;7.006492322e-45;1;0.009999999776;9.999999747e-05;50;50;1.238705754;0;0;0;0
857.168854;-0.0239585191;-0.02370407991;0.0008201611927;-14.54882813;0;1;1;1;0.01171875;7.006492322e-45;1;0.009999999776;9.999999747e-05;50;50;1.235653281;0;0;0;0
857.169904;-0.0239585191;-0.02370407991;0.0008201611927;-14.54882813;0;1;1;1;0.01171875;7.006492322e-45;1;0.009999999776;9.999999747e-05;50;50;1.230158687;0;0;0;0
857.170954;-0.0239585191;-0.02370407991;0.0008201611927;-14.54882813;0;1;1;1;0.01171875;7.006492322e-45;1;0.009999999776;9.999999747e-05;50;50;1.23382175;0;0;0;0
857.172004;-0.0239585191;-0.02370407991;0.0008201611927;-14.54882813;0;1;1;1;0.01171875;7.006492322e-45;1;0.009999999776;9.999999747e-05;50;50;1.226495743;0;0;0;0
857.172704;-0.0239585191;-0.02370407991;0.0008201611927;-14.54882813;0;1;1;1;0.01171875;7.006492322e-45;1;0.009999999776;9.999999747e-05;50;50;1.2124542;0;0;0;0
857.173754;-0.0239585191;-0.02370407991;0.0008201611927;-14.54882813;0;1;1;1;0.01171875;7.006492322e-45;1;0.009999999776;9.999999747e-05;50;50;1.152014613;0;0;0;0
857.174804;-0.0239585191;-0.02370407991;0.0008201611927;-14.54882813;0;1;1;1;0.01171875;7.006492322e-45;1;0.009999999776;9.999999747e-05;50;50;1.25641036;0;0;0;0
857.175854;-0.0239585191;-0.02370407991;0.0008201611927;-14.54882813;0;1;1;1;0.01171875;7.006492322e-45;1;0.009999999776;9.999999747e-05;50;50;1.262515306;0;0;0;0
857.176904;-0.0239585191;-0.02370407991;0.0008201611927;-14.54882813;0;1;1;1;0.01171875;7.006492322e-45;1;0.009999999776;9.999999747e-05;50;50;1.225274682;0;0;0;0
857.177954;-0.0239585191;-0.02370407991;0.0008201611927;-14.54882813;0;1;1;1;0.01171875;7.006492322e-45;1;0.009999999776;9.999999747e-05;50;50;1.238705754;0;0;0;0
857.178654;-0.0239585191;-0.02370407991;0.0008201611927;-14.54882813;0;1;1;1;0.01171875;7.006492322e-45;1;0.009999999776;9.999999747e-05;50;50;1.22344327;0;0;0;0
857.179704;-0.0239585191;-0.02370407991;0.0008201611927;-14.54882813;0;1;1;1;0.01171875;7.006492322e-45;1;0.009999999776;9.999999747e-05;50;50;1.22344327;0;0;0;0
857.180754;-0.0239585191;-0.02370407991;0.0008201611927;-14.54882813;0;1;1;1;0.01171875;7.006492322e-45;1;0.009999999776;9.999999747e-05;50;50;1.219169736;0;0;0;0
857.181804;-0.0239585191;-0.02370407991;0.0008201611927;-14.54882813;0;1;1;1;0.01171875;7.006492322e-45;1;0.009999999776;9.999999747e-05;50;50;1.231379747;0;0;0;0
857.182854;-0.0239585191;-0.02370407991;0.0008201611927;-14.54882813;0;1;1;1;0.01171875;7.006492322e-45;1;0.009999999776;9.999999747e-05;50;50;1.258852363;0;0;0;0
857.183904;-0.0239585191;-0.02370407991;0.0008201611927;-14.54882813;0;1;1;1;0.01171875;7.006492322e-45;1;0.009999999776;9.999999747e-05;50;50;1.173992634;0;0;0;0
857.184954;-0.0239585191;-0.02370407991;0.0008201611927;-14.54882813;0;1;1;1;0.01171875;7.006492322e-45;1;0.009999999776;9.999999747e-05;50;50;1.193528652;0;0;0;0
857.185654;-0.0239585191;-0.02370407991;0.0008201611927;-14.54882813;0;1;1;1;0.01171875;7.006492322e-45;1;0.009999999776;9.999999747e-05;50;50;1.237484694;0;0;0;0
857.186704;-0.0239585191;-0.02370407991;0.0008201611927;-14.54882813;0;1;1;1;0.01171875;7.006492322e-45;1;0.009999999776;9.999999747e-05;50;50;1.233211279;0;0;0;0
857.187754;-0.0239585191;-0.02370407991;0.0008201611927;-14.54882813;0;1;1;1;0.01171875;7.006492322e-45;1;0.009999999776;9.999999747e-05;50;50;1.231990218;0;0;0;0
857.188804;-0.0239585191;-0.02370407991;0.0008201611927;-14.54882813;0;1;1;1;0.01171875;7.006492322e-45;1;0.009999999776;9.999999747e-05;50;50;1.227716684;0;0;0;0
857.189854;-0.0239585191;-0.02370407991;0.0008201611927;-14.54882813;0;1;1;1;0.01171875;7.006492322e-45;1;0.009999999776;9.999999747e-05;50;50;1.218559265;0;0;0;0
857.190904;-0.0239585191;-0.02370407991;0.0008201611927;-14.54882813;0;1;1;1;0.01171875;7.006492322e-45;1;0.009999999776;9.999999747e-05;50;50;1.209401727;0;0;0;0
857.191954;-0.0239585191;-0.02370407991;0.0008201611927;-14.54882813;0;1;1;1;0.01171875;7.006492322e-45;1;0.009999999776;9.999999747e-05;50;50;1.214285731;0;0;0;0
857.192654;-0.0239585191;-0.02370407991;0.0008201611927;-14.54882813;0;1;1;1;0.01171875;7.006492322e-45;1;0.009999999776;9.999999747e-05;50;50;1.232600689;0;0;0;0
857.193704;-0.0239585191;-0.02370407991;0.0008201611927;-14.54882813;0;1;1;1;0.01171875;7.006492322e-45;1;0.009999999776;9.999999747e-05;50;50;1.230158687;0;0;0;0
857.194754;-0.0239585191;-0.02370407991;0.0008201611927;-14.54882813;0;1;1;1;0.01171875;7.006492322e-45;1;0.009999999776;9.999999747e-05;50;50;1.228937745;0;0;0;0
857.195804;-0.0239585191;-0.02370407991;0.0008201611927;-14.54882813;0;1;1;1;0.01171875;7.006492322e-45;1;0.009999999776;9.999999747e-05;50;50;1.224664211;0;0;0;0
857.196854;-0.0239585191;-0.02370407991;0.0008201611927;-14.54882813;0;1;1;1;0.01171875;7.006492322e-45;1;0.009999999776;9.999999747e-05;50;50;1.220390677;0;0;0;0
857.197904;-0.0239585191;-0.02370407991;0.0008201611927;-14.54882813;0;1;1;1;0.01171875;7.006492322e-45;1;0.009999999776;9.999999747e-05;50;50;1.22344327;0;0;0;0
857.198954;-0.0239585191;-0.02370407991;0.0008201611927;-14.54882813;0;1;1;1;0.01171875;7.006492322e-45;1;0.009999999776;9.999999747e-05;50;50;1.22344327;0;0;0;0
857.199654;-0.0239585191;-0.02370407991;0.0008201611927;-14.54882813;0;1;1;1;0.01171875;7.006492322e-45;1;0.009999999776;9.999999747e-05;50;50;1.199023247;0;0;0;0
857.200704;-0.0239585191;-0.02370407991;0.0008201611927;-14.54882813;0;1;1;1;0.01171875;7.006492322e-45;1;0.009999999776;9.999999747e-05;50;50;1.243589759;0;0;0;0
857.201754;-0.0239585191;-0.02370407991;0.0008201611927;-14.54882813;0;1;1;1;0.01171875;7.006492322e-45;1;0.009999999776;9.999999747e-05;50;50;1.242368698;0;0;0;0
857.202804;-0.0239585191;-0.02370407991;0.0008201611927;-14.54882813;0;1;1;1;0.01171875;7.006492322e-45;1;0.009999999776;9.999999747e-05;50;50;1.237484694;0;0;0;0
857.203854;-0.0239585191;-0.02370407991;0.0008201611927;-14.54882813;0;1;1;1;0.01171875;7.006492322e-45;1;0.009999999776;9.999999747e-05;50;50;1.238705754;0;0;0;0
857.204904;-0.0239585191;-0.02370407991;0.0008201611927;-14.54882813;0;1;1;1;0.01171875;7.006492322e-45;1;0.009999999776;9.999999747e-05;50;50;1.240537286;0;0;0;0
857.205954;-0.0239585191;-0.02370407991;0.0008201611927;-14.54882813;0;1;1;1;0.01171875;7.006492322e-45;1;0.009999999776;9.999999747e-05;50;50;1.236874223;0;0;0;0
857.206654;-0.0239585191;-0.02370407991;0.0008201611927;-14.54882813;0;1;1;1;0.01171875;7.006492322e-45;1;0.009999999776;9.999999747e-05;50;50;1.204517722;0;0;0;0
857.207704;-0.0239585191;-0.02370407991;0.0008201611927;-14.54882813;0;1;1;1;0.01171875;7.006492322e-45;1;0.009999999776;9.999999747e-05;50;50;1.158119678;0;0;0;0
857.208754;-0.0239585191;-0.02370407991;0.0008201611927;-14.54882813;0;1;1;1;0.01171875;7.006492322e-45;1;0.009999999776;9.999999747e-05;50;50;1.166056156;0;0;0;0
857.209804;-0.0239585191;-0.02370407991;0.0008201611927;-14.54882813;0;1;1;1;0.01171875;7.006492322e-45;1;0.009999999776;9.999999747e-05;50;50;1.239926696;0;0;0;0
857.210854;-0.0239585191;-0.02370407991;0.0008201611927;-14.54882813;0;1;1;1;0.01171875;7.006492322e-45;1;0.009999999776;9.999999747e-05;50;50;1.217948675;0;0;0;0
857.211904;-0.0239585191;-0.02370407991;0.0008201611927;-14.54882813;0;1;1;1;0.01171875;7.006492322e-45;1;0.009999999776;9.999999747e-05;50;50;1.238095284;0;0;0;0
857.212604;-0.0239585191;-0.02370407991;0.0008201611927;-14.54882813;0;1;1;1;0.01171875;7.006492322e-45;1;0.009999999776;9.999999747e-05;50;50;1.220390677;0;0;0;0
857.213654;-0.0239585191;-0.02370407991;0.0008201611927;-14.54882813;0;1;1;1;0.01171875;7.006492322e-45;1;0.009999999776;9.999999747e-05;50;50;1.215506673;0;0;0;0
857.214704;-0.0239585191;-0.02370407991;0.0008201611927;-14.54882813;0;1;1;1;0.01171875;7.006492322e-45;1;0.009999999776;9.999999747e-05;50;50;1.208180666;0;0;0;0
857.215754;-0.0239585191;-0.02370407991;0.0008201611927;-14.54882813;0;1;1;1;0.01171875;7.006492322e-45;1;0.009999999776;9.999999747e-05;50;50;1.2124542;0;0;0;0
857.216804;-0.0239585191;-0.02370407991;0.0008201611927;-14.54882813;0;1;1;1;0.01171875;7.006492322e-45;1;0.009999999776;9.999999747e-05;50;50;1.252747297;0;0;0;0
857.217854;-0.0239585191;-0.02370407991;0.0008201611927;-14.54882813;0;1;1;1;0.01171875;7.006492322e-45;1;0.009999999776;9.999999747e-05;50;50;1.260073304;0;0;0;0
857.218904;-0.0239585191;-0.02370407991;0.0008201611927;-14.54882813;0;1;1;1;0.01171875;7.006492322e-45;1;0.009999999776;9.999999747e-05;50;50;1.224053741;0;0;0;0
857.219604;-0.0239585191;-0.02370407991;0.0008201611927;-14.54882813;0;1;1;1;0.01171875;7.006492322e-45;1;0.009999999776;9.999999747e-05;50;50;1.235042691;0;0;0;0
857.220654;-0.0239585191;-0.02370407991;0.0008201611927;-14.54882813;0;1;1;1;0.01171875;7.006492322e-45;1;0.009999999776;9.999999747e-05;50;50;1.233211279;0;0;0;0
857.221704;-0.0239585191;-0.02370407991;0.0008201611927;-14.54882813;0;1;1;1;0.01171875;7.006492322e-45;1;0.009999999776;9.999999747e-05;50;50;1.231990218;0;0;0;0
857.222754;-0.0239585191;-0.02370407991;0.0008201611927;-14.54882813;0;1;1;1;0.01171875;7.006492322e-45;1;0.009999999776;9.999999747e-05;50;50;1.228327274;0;0;0;0
857.223804;-0.0239585191;-0.02370407991;0.0008201611927;-14.54882813;0;1;1;1;0.01171875;7.006492322e-45;1;0.009999999776;9.999999747e-05;50;50;1.22283268;0;0;0;0
857.224854;-0.0239585191;-0.02370407991;0.0008201611927;-14.54882813;0;1;1;1;0.01171875;7.006492322e-45;1;0.009999999776;9.999999747e-05;50;50;1.217338204;0;0;0;0
857.225904;-0.0239585191;-0.02370407991;0.0008201611927;-14.54882813;0;1;1;1;0.01171875;7.006492322e-45;1;0.009999999776;9.999999747e-05;50;50;1.145299196;0;0;0;0
857.226604;-0.0239585191;-0.02370407991;0.0008201611927;-14.54882813;0;1;1;1;0.01171875;7.006492322e-45;1;0.009999999776;9.999999747e-05;50;50;1.239926696;0;0;0;0
857.227654;-0.0239585191;-0.02370407991;0.0008201611927;-14.54882813;0;1;1;1;0.01171875;7.006492322e-45;1;0.009999999776;9.999999747e-05;50;50;1.236874223;0;0;0;0
857.228704;-0.0239585191;-0.02370407991;0.0008201611927;-14.54882813;0;1;1;1;0.01171875;7.006492322e-45;1;0.009999999776;9.999999747e-05;50;50;1.235042691;0;0;0;0
857.229754;-0.0239585191;-0.02370407991;0.0008201611927;-14.54882813;0;1;1;1;0.01171875;7.006492322e-45;1;0.009999999776;9.999999747e-05;50;50;1.228327274;0;0;0;0
857.230804;-0.0239585191;-0.02370407991;0.0008201611927;-14.54882813;0;1;1;1;0.01171875;7.006492322e-45;1;0.009999999776;9.999999747e-05;50;50;1.225274682;0;0;0;0
857.231854;-0.0239585191;-0.02370407991;0.0008201611927;-14.54882813;0;1;1;1;0.01171875;7.006492322e-45;1;0.009999999776;9.999999747e-05;50;50;1.220390677;0;0;0;0
857.232554;-0.0239585191;-0.02370407991;0.0008201611927;-14.54882813;0;1;1;1;0.01171875;7.006492322e-45;1;0.009999999776;9.999999747e-05;50;50;1.21428442;0;0;0;0
857.233604;-0.0239585191;-0.02370407991;0.0008201611927;-14.54882813;0;1;1;1;0.01171875;7.006492322e-45;1;0.009999999776;9.999999747e-05;50;50;1.261904836;0;0;0;0
857.234654;-0.0239585191;-0.02370407991;0.0008201611927;-14.54882813;0;1;1;1;0.01171875;7.006492322e-45;1;0.009999999776;9.999999747e-05;50;50;1.206959724;0;0;0;0
857.235704;-0.0239585191;-0.02370407991;0.0008201611927;-14.54882813;0;1;1;1;0.01171875;7.006492322e-45;1;0.009999999776;9.999999747e-05;50;50;1.173382163;0;0;0;0
857.236754;-0.0239585191;-0.02370407991;0.0008201611927;-14.54882813;0;1;1;1;0.01171875;7.006492322e-45;1;0.009999999776;9.999999747e-05;50;50;1.237484694;0;0;0;0
857.237804;-0.0239585191;-0.02370407991;0.0008201611927;-14.54882813;0;1;1;1;0.01171875;7.006492322e-45;1;0.009999999776;9.999999747e-05;50;50;1.238705754;0;0;0;0
857.238854;-0.0239585191;-0.02370407991;0.0008201611927;-14.54882813;0;1;1;1;0.01171875;7.006492322e-45;1;0.009999999776;9.999999747e-05;50;50;1.23382175;0;0;0;0
857.239554;-0.0239585191;-0.02370407991;0.0008201611927;-14.54882813;0;1;1;1;0.01171875;7.006492322e-45;1;0.009999999776;9.999999747e-05;50;50;1.219780207;0;0;0;0
857.240604;-0.0239585191;-0.02370407991;0.0008201611927;-14.54882813;0;1;1;1;0.01171875;7.006492322e-45;1;0.009999999776;9.999999747e-05;50;50;1.264957309;0;0;0;0
857.241654;-0.0239585191;-0.02370407991;0.0008201611927;-14.54882813;0;1;1;1;0.01171875;7.006492322e-45;1;0.009999999776;9.999999747e-05;50;50;1.192918181;0;0;0;0
857.242704;-0.0239585191;-0.02370407991;0.0008201611927;-14.54882813;0;1;1;1;0.01171875;7.006492322e-45;1;0.009999999776;9.999999747e-05;50;50;1.177045226;0;0;0;0
857.243754;-0.0239585191;-0.02370407991;0.0008201611927;-14.54882813;0;1;1;1;0.01171875;7.006492322e-45;1;0.009999999776;9.999999747e-05;50;50;1.285103798;0;0;0;0
857.244804;-0.0239585191;-0.02370407991;0.0008201611927;-14.54882813;0;1;1;1;0.01171875;7.006492322e-45;1;0.009999999776;9.999999747e-05;50;50;1.2124542;0;0;0;0
857.245854;-0.0239585191;-0.02370407991;0.0008201611927;-14.54882813;0;1;1;1;0.01171875;7.006492322e-45;1;0.009999999776;9.999999747e-05;50;50;1.239926696;0;0;0;0
857.246554;-0.0239585191;-0.02370407991;0.0008201611927;-14.54882813;0;1;1;1;0.01171875;7.006492322e-45;1;0.009999999776;9.999999747e-05;50;50;1.230158687;0;0;0;0
857.247604;-0.0239585191;-0.02370407991;0.0008201611927;-14.54882813;0;1;1;1;0.01171875;7.006492322e-45;1;0.009999999776;9.999999747e-05;50;50;1.221001267;0;0;0;0
857.248654;-0.0239585191;-0.02370407991;0.0008201611927;-14.54882813;0;1;1;1;0.01171875;7.006492322e-45;1;0.009999999776;9.999999747e-05;50;50;1.220390677;0;0;0;0
857.249704;-0.0239585191;-0.02370407991;0.0008201611927;-14.54882813;0;1;1;1;0.01171875;7.006492322e-45;1;0.009999999776;9.999999747e-05;50;50;1.232600689;0;0;0;0
857.250754;-0.0239585191;-0.02370407991;0.0008201611927;-14.54882813;0;1;1;1;0.01171875;7.006492322e-45;1;0.009999999776;9.999999747e-05;50;50;1.165445685;0;0;0;0
857.251804;-0.0239585191;-0.02370407991;0.0008201611927;-14.54882813;0;1;1;1;0.01171875;7.006492322e-45;1;0.009999999776;9.999999747e-05;50;50;1.257020831;0;0;0;0
857.252854;-0.0239585191;-0.02370407991;0.0008201611927;-14.54882813;0;1;1;1;0.01171875;7.006492322e-45;1;0.009999999776;9.999999747e-05;50;50;1.26556778;0;0;0;0
857.253554;-0.0239585191;-0.02370407991;0.0008201611927;-14.54882813;0;1;1;1;0.01171875;7.006492322e-45;1;0.009999999776;9.999999747e-05;50;50;1.226495743;0;0;0;0
857.254604;-0.0239585191;-0.02370407991;0.0008201611927;-14.54882813;0;1;1;1;0.01171875;7.006492322e-45;1;0.009999999776;9.999999747e-05;50;50;1.225274682;0;0;0;0
857.255654;-0.0239585191;-0.02370407991;0.0008201611927;-14.54882813;0;1;1;1;0.01171875;7.006492322e-45;1;0.009999999776;9.999999747e-05;50;50;1.221611738;0;0;0;0
857.256704;-0.0239585191;-0.02370407991;0.0008201611927;-14.54882813;0;1;1;1;0.01171875;7.006492322e-45;1;0.009999999776;9.999999747e-05;50;50;1.221001267;0;0;0;0
857.257754;-0.0239585191;-0.02370407991;0.0008201611927;-14.54882813;0;1;1;1;0.01171875;7.006492322e-45;1;0.009999999776;9.999999747e-05;50;50;1.216117263;0;0;0;0
857.258804;-0.0239585191;-0.02370407991;0.0008201611927;-14.54882813;0;1;1;1;0.01171875;7.006492322e-45;1;0.009999999776;9.999999747e-05;50;50;1.214285731;0;0;0;0
857.259504;-0.0239585191;-0.02370407991;0.0008201611927;-14.54882813;0;1;1;1;0.01171875;7.006492322e-45;1;0.009999999776;9.999999747e-05;50;50;1.270451784;0;0;0;0
857.260554;-0.0239585191;-0.02370407991;0.0008201611927;-14.54882813;0;1;1;1;0.01171875;7.006492322e-45;1;0.009999999776;9.999999747e-05;50;50;1.242979288;0;0;0;0
857.261604;-0.0239585191;-0.02370407991;0.0008201611927;-14.54882813;0;1;1;1;0.01171875;7.006492322e-45;1;0.009999999776;9.999999747e-05;50;50;1.240537286;0;0;0;0
857.262654;-0.0239585191;-0.02370407991;0.0008201611927;-14.54882813;0;1;1;1;0.01171875;7.006492322e-45;1;0.009999999776;9.999999747e-05;50;50;1.241758227;0;0;0;0
857.263704;-0.0239585191;-0.02370407991;0.0008201611927;-14.54882813;0;1;1;1;0.01171875;7.006492322e-45;1;0.009999999776;9.999999747e-05;50;50;1.235042691;0;0;0;0
857.264754;-0.0239585191;-0.02370407991;0.0008201611927;-14.54882813;0;1;1;1;0.01171875;7.006492322e-45;1;0.009999999776;9.999999747e-05;50;50;1.233211279;0;0;0;0
857.265804;-0.0239585191;-0.02370407991;0.0008201611927;-14.54882813;0;1;1;1;0.01171875;7.006492322e-45;1;0.009999999776;9.999999747e-05;50;50;1.228937745;0;0;0;0
857.266504;-0.0239585191;-0.02370407991;0.0008201611927;-14.54882813;0;1;1;1;0.01171875;7.006492322e-45;1;0.009999999776;9.999999747e-05;50;50;1.236874223;0;0;0;0
857.267554;-0.0239585191;-0.02370407991;0.0008201611927;-14.54882813;0;1;1;1;0.01171875;7.006492322e-45;1;0.009999999776;9.999999747e-05;50;50;1.268620372;0;0;0;0
857.268604;-0.0239585191;-0.02370407991;0.0008201611927;-14.54882813;0;1;1;1;0.01171875;7.006492322e-45;1;0.009999999776;9.999999747e-05;50;50;1.269841313;0;0;0;0
857.269654;-0.0239585191;-0.02370407991;0.0008201611927;-14.54882813;0;1;1;1;0.01171875;7.006492322e-45;1;0.009999999776;9.999999747e-05;50;50;1.239316225;0;0;0;0
857.270704;-0.0239585191;-0.02370407991;0.0008201611927;-14.54882813;0;1;1;1;0.01171875;7.006492322e-45;1;0.009999999776;9.999999747e-05;50;50;1.235653281;0;0;0;0
857.271754;-0.0239585191;-0.02370407991;0.0008201611927;-14.54882813;0;1;1;1;0.01171875;7.006492322e-45;1;0.009999999776;9.999999747e-05;50;50;1.230158687;0;0;0;0
857.272804;-0.0239585191;-0.02370407991;0.0008201611927;-14.54882813;0;1;1;1;0.01171875;7.006492322e-45;1;0.009999999776;9.999999747e-05;50;50;1.229548216;0;0;0;0
857.273504;-0.0239585191;-0.02370407991;0.0008201611927;-14.54882813;0;1;1;1;0.01171875;7.006492322e-45;1;0.009999999776;9.999999747e-05;50;50;1.210012197;0;0;0;0
857.274554;-0.0239585191;-0.02370407991;0.0008201611927;-14.54882813;0;1;1;1;0.01171875;7.006492322e-45;1;0.009999999776;9.999999747e-05;50;50;1.22344327;0;0;0;0
857.275604;-0.0239585191;-0.02370407991;0.0008201611927;-14.54882813;0;1;1;1;0.01171875;7.006492322e-45;1;0.009999999776;9.999999747e-05;50;50;1.242979288;0;0;0;0
857.276654;-0.0239585191;-0.02370407991;0.0008201611927;-14.54882813;0;1;1;1;0.01171875;7.006492322e-45;1;0.009999999776;9.999999747e-05;50;50;1.14896214;0;0;0;0
857.277704;-0.0239585191;-0.02370407991;0.0008201611927;-14.54882813;0;1;1;1;0.01171875;7.006492322e-45;1;0.009999999776;9.999999747e-05;50;50;1.181318641;0;0;0;0
857.278754;-0.0239585191;-0.02370407991;0.0008201611927;-14.54882813;0;1;1;1;0.01171875;7.006492322e-45;1;0.009999999776;9.999999747e-05;50;50;1.211843729;0;0;0;0
857.279804;-0.0239585191;-0.02370407991;0.0008201611927;-14.54882813;0;1;1;1;0.01171875;7.006492322e-45;1;0.009999999776;9.999999747e-05;50;50;1.239316225;0;0;0;0
857.280504;-0.0239585191;-0.02370407991;0.0008201611927;-14.54882813;0;1;1;1;0.01171875;7.006492322e-45;1;0.009999999776;9.999999747e-05;50;50;1.228937745;0;0;0;0
857.281554;-0.0239585191;-0.02370407991;0.0008201611927;-14.54882813;0;1;1;1;0.01171875;7.006492322e-45;1;0.009999999776;9.999999747e-05;50;50;1.220390677;0;0;0;0
857.282604;-0.0239585191;-0.02370407991;0.0008201611927;-14.54882813;0;1;1;1;0.01171875;7.006492322e-45;1;0.009999999776;9.999999747e-05;50;50;1.217948675;0;0;0;0
857.283654;-0.0239585191;-0.02370407991;0.0008201611927;-14.54882813;0;1;1;1;0.01171875;7.006492322e-45;1;0.009999999776;9.999999747e-05;50;50;1.269841313;0;0;0;0
857.284704;-0.0239585191;-0.02370407991;0.0008201611927;-14.54882813;0;1;1;1;0.01171875;7.006492322e-45;1;0.009999999776;9.999999747e-05;50;50;1.235042691;0;0;0;0
857.285754;-0.0239585191;-0.02370407991;0.0008201611927;-14.54882813;0;1;1;1;0.01171875;7.006492322e-45;1;0.009999999776;9.999999747e-05;50;50;1.268009901;0;0;0;0
857.286454;-0.0239585191;-0.02370407991;0.0008201611927;-14.54882813;0;1;1;1;0.01171875;7.006492322e-45;1;0.009999999776;9.999999747e-05;50;50;1.238705754;0;0;0;0
857.287504;-0.0239585191;-0.02370407991;0.0008201611927;-14.54882813;0;1;1;1;0.01171875;7.006492322e-45;1;0.009999999776;9.999999747e-05;50;50;1.235042691;0;0;0;0
857.288554;-0.0239585191;-0.02370407991;0.0008201611927;-14.54882813;0;1;1;1;0.01171875;7.006492322e-45;1;0.009999999776;9.999999747e-05;50;50;1.23382175;0;0;0;0
857.289604;-0.0239585191;-0.02370407991;0.0008201611927;-14.54882813;0;1;1;1;0.01171875;7.006492322e-45;1;0.009999999776;9.999999747e-05;50;50;1.225885272;0;0;0;0
857.290654;-0.0239585191;-0.02370407991;0.0008201611927;-14.54882813;0;1;1;1;0.01171875;7.006492322e-45;1;0.009999999776;9.999999747e-05;50;50;1.217948675;0;0;0;0
857.291704;-0.0239585191;-0.02370407991;0.0008201611927;-14.54882813;0;1;1;1;0.01171875;7.006492322e-45;1;0.009999999776;9.999999747e-05;50;50;1.215506673;0;0;0;0
857.292754;-0.0239585191;-0.02370407991;0.0008201611927;-14.54882813;0;1;1;1;0.01171875;7.006492322e-45;1;0.009999999776;9.999999747e-05;50;50;1.206959724;0;0;0;0
857.293454;-0.0239585191;-0.02370407991;0.0008201611927;-14.54882813;0;1;1;1;0.01171875;7.006492322e-45;1;0.009999999776;9.999999747e-05;50;50;1.179487228;0;0;0;0
857.294504;-0.0239585191;-0.02370407991;0.0008201611927;-14.54882813;0;1;1;1;0.01171875;7.006492322e-45;1;0.009999999776;9.999999747e-05;50;50;1.236263752;0;0;0;0
857.295554;-0.0239585191;-0.02370407991;0.0008201611927;-14.54882813;0;1;1;1;0.01171875;7.006492322e-45;1;0.009999999776;9.999999747e-05;50;50;1.231990218;0;0;0;0
857.296604;-0.0239585191;-0.02370407991;0.0008201611927;-14.54882813;0;1;1;1;0.01171875;7.006492322e-45;1;0.009999999776;9.999999747e-05;50;50;1.228937745;0;0;0;0
857.297654;-0.0239585191;-0.02370407991;0.0008201611927;-14.54882813;0;1;1;1;0.01171875;7.006492322e-45;1;0.009999999776;9.999999747e-05;50;50;1.228937745;0;0;0;0
857.298704;-0.0239585191;-0.02370407991;0.0008201611927;-14.54882813;0;1;1;1;0.01171875;7.006492322e-45;1;0.009999999776;9.999999747e-05;50;50;1.224664211;0;0;0;0
857.299754;-0.0239585191;-0.02370407991;0.0008201611927;-14.54882813;0;1;1;1;0.01171875;7.006492322e-45;1;0.009999999776;9.999999747e-05;50;50;1.224664211;0;0;0;0
857.300454;-0.0239585191;-0.02370407991;0.0008201611927;-14.54882813;0;1;1;1;0.01171875;7.006492322e-45;1;0.009999999776;9.999999747e-05;50;50;1.158119678;0;0;0;0
857.301504;-0.0239585191;-0.02370407991;0.0008201611927;-14.54882813;0;1;1;1;0.01171875;7.006492322e-45;1;0.009999999776;9.999999747e-05;50;50;1.273504376;0;0;0;0
857.302554;-0.0239585191;-0.02370407991;0.0008201611927;-14.54882813;0;1;1;1;0.01171875;7.006492322e-45;1;0.009999999776;9.999999747e-05;50;50;1.243589759;0;0;0;0
857.303604;-0.0239585191;-0.02370407991;0.0008201611927;-14.54882813;0;1;1;1;0.01171875;7.006492322e-45;1;0.009999999776;9.999999747e-05;50;50;1.24420023;0;0;0;0
857.304654;-0.0239585191;-0.02370407991;0.0008201611927;-14.54882813;0;1;1;1;0.01171875;7.006492322e-45;1;0.009999999776;9.999999747e-05;50;50;1.241758227;0;0;0;0
857.305704;-0.0239585191;-0.02370407991;0.0008201611927;-14.54882813;0;1;1;1;0.01171875;7.006492322e-45;1;0.009999999776;9.999999747e-05;50;50;1.237484694;0;0;0;0
857.306754;-0.0239585191;-0.02370407991;0.0008201611927;-14.54882813;0;1;1;1;0.01171875;7.006492322e-45;1;0.009999999776;9.999999747e-05;50;50;1.230158687;0;0;0;0
857.307454;-0.0239585191;-0.02370407991;0.0008201611927;-14.54882813;0;1;1;1;0.01171875;7.006492322e-45;1;0.009999999776;9.999999747e-05;50;50;1.225885272;0;0;0;0
857.308504;-0.0239585191;-0.02370407991;0.0008201611927;-14.54882813;0;1;1;1;0.01171875;7.006492322e-45;1;0.009999999776;9.999999747e-05;50;50;1.217948675;0;0;0;0
857.309554;-0.0239585191;-0.02370407991;0.0008201611927;-14.54882813;0;1;1;1;0.01171875;7.006492322e-45;1;0.009999999776;9.999999747e-05;50;50;1.220390677;0;0;0;0
857.310604;-0.0239585191;-0.02370407991;0.0008201611927;-14.54882813;0;1;1;1;0.01171875;7.006492322e-45;1;0.009999999776;9.999999747e-05;50;50;1.264957309;0;0;0;0
857.311654;-0.0239585191;-0.02370407991;0.0008201611927;-14.54882813;0;1;1;1;0.01171875;7.006492322e-45;1;0.009999999776;9.999999747e-05;50;50;1.231379747;0;0;0;0
857.312704;-0.0239585191;-0.02370407991;0.0008201611927;-14.54882813;0;1;1;1;0.01171875;7.006492322e-45;1;0.009999999776;9.999999747e-05;50;50;1.232600689;0;0;0;0
857.313404;-0.0239585191;-0.02370407991;0.0008201611927;-14.54882813;0;1;1;1;0.01171875;7.006492322e-45;1;0.009999999776;9.999999747e-05;50;50;1.217948675;0;0;0;0
857.314454;-0.0239585191;-0.02370407991;0.0008201611927;-14.54882813;0;1;1;1;0.01171875;7.006492322e-45;1;0.009999999776;9.999999747e-05;50;50;1.214285731;0;0;0;0
857.315504;-0.0239585191;-0.02370407991;0.0008201611927;-14.54882813;0;1;1;1;0.01171875;7.006492322e-45;1;0.009999999776;9.999999747e-05;50;50;1.211233258;0;0;0;0
857.316554;-0.0239585191;-0.02370407991;0.0008201611927;-14.54882813;0;1;1;1;0.01171875;7.006492322e-45;1;0.009999999776;9.999999747e-05;50;50;1.210622668;0;0;0;0
857.317604;-0.0239585191;-0.02370407991;0.0008201611927;-14.54882813;0;1;1;1;0.01171875;7.006492322e-45;1;0.009999999776;9.999999747e-05;50;50;1.211233258;0;0;0;0
857.318654;-0.0239585191;-0.02370407991;0.0008201611927;-14.54882813;0;1;1;1;0.01171875;7.006492322e-45;1;0.009999999776;9.999999747e-05;50;50;1.216727734;0;0;0;0
857.319704;-0.0239585191;-0.02370407991;0.0008201611927;-14.54882813;0;1;1;1;0.01171875;7.006492322e-45;1;0.009999999776;9.999999747e-05;50;50;1.267399311;0;0;0;0
857.320404;-0.0239585191;-0.02370407991;0.0008201611927;-14.54882813;0;1;1;1;0.01171875;7.006492322e-45;1;0.009999999776;9.999999747e-05;50;50;1.237484694;0;0;0;0
857.321454;-0.0239585191;-0.02370407991;0.0008201611927;-14.54882813;0;1;1;1;0.01171875;7.006492322e-45;1;0.009999999776;9.999999747e-05;50;50;1.239316225;0;0;0;0
857.322504;-0.0239585191;-0.02370407991;0.0008201611927;-14.54882813;0;1;1;1;0.01171875;7.006492322e-45;1;0.009999999776;9.999999747e-05;50;50;1.232600689;0;0;0;0
857.323554;-0.0239585191;-0.02370407991;0.0008201611927;-14.54882813;0;1;1;1;0.01171875;7.006492322e-45;1;0.009999999776;9.999999747e-05;50;50;1.229548216;0;0;0;0
857.324604;-0.0239585191;-0.02370407991;0.0008201611927;-14.54882813;0;1;1;1;0.01171875;7.006492322e-45;1;0.009999999776;9.999999747e-05;50;50;1.224053741;0;0;0;0
857.325654;-0.0239585191;-0.02370407991;0.0008201611927;-14.54882813;0;1;1;1;0.01171875;7.006492322e-45;1;0.009999999776;9.999999747e-05;50;50;1.22344327;0;0;0;0
857.326704;-0.0239585191;-0.02370407991;0.0008201611927;-14.54882813;0;1;1;1;0.01171875;7.006492322e-45;1;0.009999999776;9.999999747e-05;50;50;1.238095284;0;0;0;0
857.327404;-0.0239585191;-0.02370407991;0.0008201611927;-14.54882813;0;1;1;1;0.01171875;7.006492322e-45;1;0.009999999776;9.999999747e-05;50;50;1.238705754;0;0;0;0
857.328454;-0.0239585191;-0.02370407991;0.0008201611927;-14.54882813;0;1;1;1;0.01171875;7.006492322e-45;1;0.009999999776;9.999999747e-05;50;50;1.238705754;0;0;0;0
857.329504;-0.0239585191;-0.02370407991;0.0008201611927;-14.54882813;0;1;1;1;0.01171875;7.006492322e-45;1;0.009999999776;9.999999747e-05;50;50;1.236874223;0;0;0;0
857.330554;-0.0239585191;-0.02370407991;0.0008201611927;-14.54882813;0;1;1;1;0.01171875;7.006492322e-45;1;0.009999999776;9.999999747e-05;50;50;1.230158687;0;0;0;0
857.331604;-0.0239585191;-0.02370407991;0.0008201611927;-14.54882813;0;1;1;1;0.01171875;7.006492322e-45;1;0.009999999776;9.999999747e-05;50;50;1.229548216;0;0;0;0
857.332654;-0.0239585191;-0.02370407991;0.0008201611927;-14.54882813;0;1;1;1;0.01171875;7.006492322e-45;1;0.009999999776;9.999999747e-05;50;50;1.22283268;0;0;0;0
857.333704;-0.0239585191;-0.02370407991;0.0008201611927;-14.54882813;0;1;1;1;0.01171875;7.006492322e-45;1;0.009999999776;9.999999747e-05;50;50;1.213064671;0;0;0;0
857.334404;-0.0239585191;-0.02370407991;0.0008201611927;-14.54882813;0;1;1;1;0.01171875;7.006492322e-45;1;0.009999999776;9.999999747e-05;50;50;1.221611738;0;0;0;0
857.335454;-0.0239585191;-0.02370407991;0.0008201611927;-14.54882813;0;1;1;1;0.01171875;7.006492322e-45;1;0.009999999776;9.999999747e-05;50;50;1.246642232;0;0;0;0
857.336504;-0.0239585191;-0.02370407991;0.0008201611927;-14.54882813;0;1;1;1;0.01171875;7.006492322e-45;1;0.009999999776;9.999999747e-05;50;50;1.239926696;0;0;0;0
857.337554;-0.0239585191;-0.02370407991;0.0008201611927;-14.54882813;0;1;1;1;0.01171875;7.006492322e-45;1;0.009999999776;9.999999747e-05;50;50;1.239926696;0;0;0;0
857.338604;-0.0239585191;-0.02370407991;0.0008201611927;-14.54882813;0;1;1;1;0.01171875;7.006492322e-45;1;0.009999999776;9.999999747e-05;50;50;1.240537286;0;0;0;0
857.339654;-0.0239585191;-0.02370407991;0.0008201611927;-14.54882813;0;1;1;1;0.01171875;7.006492322e-45;1;0.009999999776;9.999999747e-05;50;50;1.23443222;0;0;0;0
857.340354;-0.0239585191;-0.02370407991;0.0008201611927;-14.54882813;0;1;1;1;0.01171875;7.006492322e-45;1;0.009999999776;9.999999747e-05;50;50;1.221611738;0;0;0;0
857.341404;-0.0239585191;-0.02370407991;0.0008201611927;-14.54882813;0;1;1;1;0.01171875;7.006492322e-45;1;0.009999999776;9.999999747e-05;50;50;1.236874223;0;0;0;0
857.342454;-0.0239585191;-0.02370407991;0.0008201611927;-14.54882813;0;1;1;1;0.01171875;7.006492322e-45;1;0.009999999776;9.999999747e-05;50;50;1.238705754;0;0;0;0
857.343504;-0.0239585191;-0.02370407991;0.0008201611927;-14.54882813;0;1;1;1;0.01171875;7.006492322e-45;1;0.009999999776;9.999999747e-05;50;50;1.175213695;0;0;0;0
857.344554;-0.0239585191;-0.02370407991;0.0008201611927;-14.54882813;0;1;1;1;0.01171875;7.006492322e-45;1;0.009999999776;9.999999747e-05;50;50;1.239316225;0;0;0;0
857.345604;-0.0239585191;-0.02370407991;0.0008201611927;-14.54882813;0;1;1;1;0.01171875;7.006492322e-45;1;0.009999999776;9.999999747e-05;50;50;1.241758227;0;0;0;0
857.346654;-0.0239585191;-0.02370407991;0.0008201611927;-14.54882813;0;1;1;1;0.01171875;7.006492322e-45;1;0.009999999776;9.999999747e-05;50;50;1.242368698;0;0;0;0
857.347354;-0.0239585191;-0.02370407991;0.0008201611927;-14.54882813;0;1;1;1;0.01171875;7.006492322e-45;1;0.009999999776;9.999999747e-05;50;50;1.227716684;0;0;0;0
857.348404;-0.0239585191;-0.02370407991;0.0008201611927;-14.54882813;0;1;1;1;0.01171875;7.006492322e-45;1;0.009999999776;9.999999747e-05;50;50;1.225274682;0;0;0;0
857.349454;-0.0239585191;-0.02370407991;0.0008201611927;-14.54882813;0;1;1;1;0.01171875;7.006492322e-45;1;0.009999999776;9.999999747e-05;50;50;1.219169736;0;0;0;0
857.350504;-0.0239585191;-0.02370407991;0.0008201611927;-14.54882813;0;1;1;1;0.01171875;7.006492322e-45;1;0.009999999776;9.999999747e-05;50;50;1.216727734;0;0;0;0
857.351554;-0.0239585191;-0.02370407991;0.0008201611927;-14.54882813;0;1;1;1;0.01171875;7.006492322e-45;1;0.009999999776;9.999999747e-05;50;50;1.222222209;0;0;0;0
857.352604;-0.0239585191;-0.02370407991;0.0008201611927;-14.54882813;0;1;1;1;0.01171875;7.006492322e-45;1;0.009999999776;9.999999747e-05;50;50;1.161172152;0;0;0;0
857.353654;-0.0239585191;-0.02370407991;0.0008201611927;-14.54882813;0;1;1;1;0.01171875;7.006492322e-45;1;0.009999999776;9.999999747e-05;50;50;1.229548216;0;0;0;0
857.354354;-0.0239585191;-0.02370407991;0.0008201611927;-14.54882813;0;1;1;1;0.01171875;7.006492322e-45;1;0.009999999776;9.999999747e-05;50;50;1.230158687;0;0;0;0
857.355404;-0.0239585191;-0.02370407991;0.0008201611927;-14.54882813;0;1;1;1;0.01171875;7.006492322e-45;1;0.009999999776;9.999999747e-05;50;50;1.230158687;0;0;0;0
857.356454;-0.0239585191;-0.02370407991;0.0008201611927;-14.54882813;0;1;1;1;0.01171875;7.006492322e-45;1;0.009999999776;9.999999747e-05;50;50;1.226495743;0;0;0;0
857.357504;-0.0239585191;-0.02370407991;0.0008201611927;-14.54882813;0;1;1;1;0.01171875;7.006492322e-45;1;0.009999999776;9.999999747e-05;50;50;1.219169736;0;0;0;0
857.358554;-0.0239585191;-0.02370407991;0.0008201611927;-14.54882813;0;1;1;1;0.01171875;7.006492322e-45;1;0.009999999776;9.999999747e-05;50;50;1.219169736;0;0;0;0
857.359604;-0.0239585191;-0.02370407991;0.0008201611927;-14.54882813;0;1;1;1;0.01171875;7.006492322e-45;1;0.009999999776;9.999999747e-05;50;50;1.225274682;0;0;0;0
857.360654;-0.0239585191;-0.02370407991;0.0008201611927;-14.54882813;0;1;1;1;0.01171875;7.006492322e-45;1;0.009999999776;9.999999747e-05;50;50;1.230158687;0;0;0;0
857.361354;-0.0239585191;-0.02370407991;0.0008201611927;-14.54882813;0;1;1;1;0.01171875;7.006492322e-45;1;0.009999999776;9.999999747e-05;50;50;1.24420023;0;0;0;0
857.362404;-0.0239585191;-0.02370407991;0.0008201611927;-14.54882813;0;1;1;1;0.01171875;7.006492322e-45;1;0.009999999776;9.999999747e-05;50;50;1.238095284;0;0;0;0
857.363454;-0.0239585191;-0.02370407991;0.0008201611927;-14.54882813;0;1;1;1;0.01171875;7.006492322e-45;1;0.009999999776;9.999999747e-05;50;50;1.235042691;0;0;0;0
857.364504;-0.0239585191;-0.02370407991;0.0008201611927;-14.54882813;0;1;1;1;0.01171875;7.006492322e-45;1;0.009999999776;9.999999747e-05;50;50;1.235653281;0;0;0;0
857.365554;-0.0239585191;-0.02370407991;0.0008201611927;-14.54882813;0;1;1;1;0.01171875;7.006492322e-45;1;0.009999999776;9.999999747e-05;50;50;1.236874223;0;0;0;0
857.366604;-0.0239585191;-0.02370407991;0.0008201611927;-14.54882813;0;1;1;1;0.01171875;7.006492322e-45;1;0.009999999776;9.999999747e-05;50;50;1.231990218;0;0;0;0
857.367304;-0.0239585191;-0.02370407991;0.0008201611927;-14.54882813;0;1;1;1;0.01171875;7.006492322e-45;1;0.009999999776;9.999999747e-05;50;50;1.15934062;0;0;0;0
857.368354;-0.0239585191;-0.02370407991;0.0008201611927;-14.54882813;0;1;1;1;0.01171875;7.006492322e-45;1;0.009999999776;9.999999747e-05;50;50;1.242368698;0;0;0;0
857.369404;-0.0239585191;-0.02370407991;0.0008201611927;-14.54882813;0;1;1;1;0.01171875;7.006492322e-45;1;0.009999999776;9.999999747e-05;50;50;1.227106214;0;0;0;0
857.370454;-0.0239585191;-0.02370407991;0.0008201611927;-14.54882813;0;1;1;1;0.01171875;7.006492322e-45;1;0.009999999776;9.999999747e-05;50;50;1.188644648;0;0;0;0
857.371504;-0.0239585191;-0.02370407991;0.0008201611927;-14.54882813;0;1;1;1;0.01171875;7.006492322e-45;1;0.009999999776;9.999999747e-05;50;50;1.236874223;0;0;0;0
857.372554;-0.0239585191;-0.02370407991;0.0008201611927;-14.54882813;0;1;1;1;0.01171875;7.006492322e-45;1;0.009999999776;9.999999747e-05;50;50;1.229548216;0;0;0;0
857.373604;-0.0239585191;-0.02370407991;0.0008201611927;-14.54882813;0;1;1;1;0.01171875;7.006492322e-45;1;0.009999999776;9.999999747e-05;50;50;1.228327274;0;0;0;0
857.374304;-0.0239585191;-0.02370407991;0.0008201611927;-14.54882813;0;1;1;1;0.01171875;7.006492322e-45;1;0.009999999776;9.999999747e-05;50;50;1.211233258;0;0;0;0
857.375354;-0.0239585191;-0.02370407991;0.0008201611927;-14.54882813;0;1;1;1;0.01171875;7.006492322e-45;1;0.009999999776;9.999999747e-05;50;50;1.211843729;0;0;0;0
857.376404;-0.0239585191;-0.02370407991;0.0008201611927;-14.54882813;0;1;1;1;0.01171875;7.006492322e-45;1;0.009999999776;9.999999747e-05;50;50;1.261904836;0;0;0;0
857.377454;-0.0239585191;-0.02370407991;0.0008201611927;-14.54882813;0;1;1;1;0.01171875;7.006492322e-45;1;0.009999999776;9.999999747e-05;50;50;1.204517722;0;0;0;0
857.378504;-0.0239585191;-0.02370407991;0.0008201611927;-14.54882813;0;1;1;1;0.01171875;7.006492322e-45;1;0.009999999776;9.999999747e-05;50;50;1.19169724;0;0;0;0
857.379554;-0.0239585191;-0.02370407991;0.0008201611927;-14.54882813;0;1;1;1;0.01171875;7.006492322e-45;1;0.009999999776;9.999999747e-05;50;50;1.237484694;0;0;0;0
857.380604;-0.0239585191;-0.02370407991;0.0008201611927;-14.54882813;0;1;1;1;0.01171875;7.006492322e-45;1;0.009999999776;9.999999747e-05;50;50;1.243589759;0;0;0;0
857.381304;-0.0239585191;-0.02370407991;0.0008201611927;-14.54882813;0;1;1;1;0.01171875;7.006492322e-45;1;0.009999999776;9.999999747e-05;50;50;1.227716684;0;0;0;0
857.382354;-0.0239585191;-0.02370407991;0.0008201611927;-14.54882813;0;1;1;1;0.01171875;7.006492322e-45;1;0.009999999776;9.999999747e-05;50;50;1.231379747;0;0;0;0
857.383404;-0.0239585191;-0.02370407991;0.0008201611927;-14.54882813;0;1;1;1;0.01171875;7.006492322e-45;1;0.009999999776;9.999999747e-05;50;50;1.225885272;0;0;0;0
857.384454;-0.0239585191;-0.02370407991;0.0008201611927;-14.54882813;0;1;1;1;0.01171875;7.006492322e-45;1;0.009999999776;9.999999747e-05;50;50;1.231990218;0;0;0;0
857.385504;-0.0239585191;-0.02370407991;0.0008201611927;-14.54882813;0;1;1;1;0.01171875;7.006492322e-45;1;0.009999999776;9.999999747e-05;50;50;1.166666627;0;0;0;0
857.386554;-0.0239585191;-0.02370407991;0.0008201611927;-14.54882813;0;1;1;1;0.01171875;7.006492322e-45;1;0.009999999776;9.999999747e-05;50;50;1.246642232;0;0;0;0
857.387604;-0.0239585191;-0.02370407991;0.0008201611927;-14.54882813;0;1;1;1;0.01171875;7.006492322e-45;1;0.009999999776;9.999999747e-05;50;50;1.166666627;0;0;0;0
857.388304;-0.0239585191;-0.02370407991;0.0008201611927;-14.54882813;0;1;1;1;0.01171875;7.006492322e-45;1;0.009999999776;9.999999747e-05;50;50;1.236874223;0;0;0;0
857.389354;-0.0239585191;-0.02370407991;0.0008201611927;-14.54882813;0;1;1;1;0.01171875;7.006492322e-45;1;0.009999999776;9.999999747e-05;50;50;1.229548216;0;0;0;0
857.390404;-0.0239585191;-0.02370407991;0.0008201611927;-14.54882813;0;1;1;1;0.01171875;7.006492322e-45;1;0.009999999776;9.999999747e-05;50;50;1.221611738;0;0;0;0
857.391454;-0.0239585191;-0.02370407991;0.0008201611927;-14.54882813;0;1;1;1;0.01171875;7.006492322e-45;1;0.009999999776;9.999999747e-05;50;50;1.217948675;0;0;0;0
857.392504;-0.0239585191;-0.02370407991;0.0008201611927;-14.54882813;0;1;1;1;0.01171875;7.006492322e-45;1;0.009999999776;9.999999747e-05;50;50;1.216727734;0;0;0;0
857.393554;-0.0239585191;-0.02370407991;0.0008201611927;-14.54882813;0;1;1;1;0.01171875;7.006492322e-45;1;0.009999999776;9.999999747e-05;50;50;1.2124542;0;0;0;0
857.394254;-0.0239585191;-0.02370407991;0.0008201611927;-14.54882813;0;1;1;1;0.01171875;7.006492322e-45;1;0.009999999776;9.999999747e-05;50;50;1.224053741;0;0;0;0
857.395304;-0.0239585191;-0.02370407991;0.0008201611927;-14.54882813;0;1;1;1;0.01171875;7.006492322e-45;1;0.009999999776;9.999999747e-05;50;50;1.205128193;0;0;0;0
857.396354;-0.0239585191;-0.02370407991;0.0008201611927;-14.54882813;0;1;1;1;0.01171875;7.006492322e-45;1;0.009999999776;9.999999747e-05;50;50;1.23382175;0;0;0;0
857.397404;-0.0239585191;-0.02370407991;0.0008201611927;-14.54882813;0;1;1;1;0.01171875;7.006492322e-45;1;0.009999999776;9.999999747e-05;50;50;1.235042691;0;0;0;0
857.398454;-0.0239585191;-0.02370407991;0.0008201611927;-14.54882813;0;1;1;1;0.01171875;7.006492322e-45;1;0.009999999776;9.999999747e-05;50;50;1.239926696;0;0;0;0
857.399504;-0.0239585191;-0.02370407991;0.0008201611927;-14.54882813;0;1;1;1;0.01171875;7.006492322e-45;1;0.009999999776;9.999999747e-05;50;50;1.239316225;0;0;0;0
857.400554;-0.0239585191;-0.02370407991;0.0008201611927;-14.54882813;0;1;1;1;0.01171875;7.006492322e-45;1;0.009999999776;9.999999747e-05;50;50;1.230158687;0;0;0;0
857.401254;-0.0239585191;-0.02370407991;0.0008201611927;-14.54882813;0;1;1;1;0.01171875;7.006492322e-45;1;0.009999999776;9.999999747e-05;50;50;1.23443222;0;0;0;0
857.402304;-0.0239585191;-0.02370407991;0.0008201611927;-14.54882813;0;1;1;1;0.01171875;7.006492322e-45;1;0.009999999776;9.999999747e-05;50;50;1.253357887;0;0;0;0
857.403354;-0.0239585191;-0.02370407991;0.0008201611927;-14.54882813;0;1;1;1;0.01171875;7.006492322e-45;1;0.009999999776;9.999999747e-05;50;50;1.287545919;0;0;0;0
857.404404;-0.0239585191;-0.02370407991;0.0008201611927;-14.54882813;0;1;1;1;0.01171875;7.006492322e-45;1;0.009999999776;9.999999747e-05;50;50;1.247252703;0;0;0;0
857.405454;-0.0239585191;-0.02370407991;0.0008201611927;-14.54882813;0;1;1;1;0.01171875;7.006492322e-45;1;0.009999999776;9.999999747e-05;50;50;1.242368698;0;0;0;0
857.406504;-0.0239585191;-0.02370407991;0.0008201611927;-14.54882813;0;1;1;1;0.01171875;7.006492322e-45;1;0.009999999776;9.999999747e-05;50;50;1.236263752;0;0;0;0
857.407554;-0.0239585191;-0.02370407991;0.0008201611927;-14.54882813;0;1;1;1;0.01171875;7.006492322e-45;1;0.009999999776;9.999999747e-05;50;50;1.235042691;0;0;0;0
857.408254;-0.0239585191;-0.02370407991;0.0008201611927;-14.54882813;0;1;1;1;0.01171875;7.006492322e-45;1;0.009999999776;9.999999747e-05;50;50;1.213675261;0;0;0;0
857.409304;-0.0239585191;-0.02370407991;0.0008201611927;-14.54882813;0;1;1;1;0.01171875;7.006492322e-45;1;0.009999999776;9.999999747e-05;50;50;1.231990218;0;0;0;0
857.410354;-0.0239585191;-0.02370407991;0.0008201611927;-14.54882813;0;1;1;1;0.01171875;7.006492322e-45;1;0.009999999776;9.999999747e-05;50;50;1.261904836;0;0;0;0
857.411404;-0.0239585191;-0.02370407991;0.0008201611927;-14.54882813;0;1;1;1;0.01171875;7.006492322e-45;1;0.009999999776;9.999999747e-05;50;50;1.172771692;0;0;0;0
857.412454;-0.0239585191;-0.02370407991;0.0008201611927;-14.54882813;0;1;1;1;0.01171875;7.006492322e-45;1;0.009999999776;9.999999747e-05;50;50;1.259462833;0;0;0;0
857.413504;-0.0239585191;-0.02370407991;0.0008201611927;-14.54882813;0;1;1;1;0.01171875;7.006492322e-45;1;0.009999999776;9.999999747e-05;50;50;1.202686191;0;0;0;0
857.414554;-0.0239585191;-0.02370407991;0.0008201611927;-14.54882813;0;1;1;1;0.01171875;7.006492322e-45;1;0.009999999776;9.999999747e-05;50;50;1.179487228;0;0;0;0
857.415254;-0.0239585191;-0.02370407991;0.0008201611927;-14.54882813;0;1;1;1;0.01171875;7.006492322e-45;1;0.009999999776;9.999999747e-05;50;50;1.221001267;0;0;0;0
857.416304;-0.0239585191;-0.02370407991;0.0008201611927;-14.54882813;0;1;1;1;0.01171875;7.006492322e-45;1;0.009999999776;9.999999747e-05;50;50;1.219169736;0;0;0;0
857.417354;-0.0239585191;-0.02370407991;0.0008201611927;-14.54882813;0;1;1;1;0.01171875;7.006492322e-45;1;0.009999999776;9.999999747e-05;50;50;1.219780207;0;0;0;0
857.418404;-0.0239585191;-0.02370407991;0.0008201611927;-14.54882813;0;1;1;1;0.01171875;7.006492322e-45;1;0.009999999776;9.999999747e-05;50;50;1.214285731;0;0;0;0
857.419454;-0.0239585191;-0.02370407991;0.0008201611927;-14.54882813;0;1;1;1;0.01171875;7.006492322e-45;1;0.009999999776;9.999999747e-05;50;50;1.262515306;0;0;0;0
857.420504;-0.0239585191;-0.02370407991;0.0008201611927;-14.54882813;0;1;1;1;0.01171875;7.006492322e-45;1;0.009999999776;9.999999747e-05;50;50;1.230158687;0;0;0;0
857.421204;-0.0239585191;-0.02370407991;0.0008201611927;-14.54882813;0;1;1;1;0.01171875;7.006492322e-45;1;0.009999999776;9.999999747e-05;50;50;1.241147757;0;0;0;0
857.422254;-0.0239585191;-0.02370407991;0.0008201611927;-14.54882813;0;1;1;1;0.01171875;7.006492322e-45;1;0.009999999776;9.999999747e-05;50;50;1.240537286;0;0;0;0
857.423304;-0.0239585191;-0.02370407991;0.0008201611927;-14.54882813;0;1;1;1;0.01171875;7.006492322e-45;1;0.009999999776;9.999999747e-05;50;50;1.239926696;0;0;0;0
857.424354;-0.0239585191;-0.02370407991;0.0008201611927;-14.54882813;0;1;1;1;0.01171875;7.006492322e-45;1;0.009999999776;9.999999747e-05;50;50;1.228937745;0;0;0;0
857.425404;-0.0239585191;-0.02370407991;0.0008201611927;-14.54882813;0;1;1;1;0.01171875;7.006492322e-45;1;0.009999999776;9.999999747e-05;50;50;1.231379747;0;0;0;0
857.426454;-0.0239585191;-0.02370407991;0.0008201611927;-14.54882813;0;1;1;1;0.01171875;7.006492322e-45;1;0.009999999776;9.999999747e-05;50;50;1.226495743;0;0;0;0
857.427504;-0.0239585191;-0.02370407991;0.0008201611927;-14.54882813;0;1;1;1;0.01171875;7.006492322e-45;1;0.009999999776;9.999999747e-05;50;50;1.220390677;0;0;0;0
857.428204;-0.0239585191;-0.02370407991;0.0008201611927;-14.54882813;0;1;1;1;0.01171875;7.006492322e-45;1;0.009999999776;9.999999747e-05;50;50;1.205128193;0;0;0;0
857.429254;-0.0239585191;-0.02370407991;0.0008201611927;-14.54882813;0;1;1;1;0.01171875;7.006492322e-45;1;0.009999999776;9.999999747e-05;50;50;1.239316225;0;0;0;0
857.430304;-0.0239585191;-0.02370407991;0.0008201611927;-14.54882813;0;1;1;1;0.01171875;7.006492322e-45;1;0.009999999776;9.999999747e-05;50;50;1.230158687;0;0;0;0
857.431354;-0.0239585191;-0.02370407991;0.0008201611927;-14.54882813;0;1;1;1;0.01171875;7.006492322e-45;1;0.009999999776;9.999999747e-05;50;50;1.232600689;0;0;0;0
857.432404;-0.0239585191;-0.02370407991;0.0008201611927;-14.54882813;0;1;1;1;0.01171875;7.006492322e-45;1;0.009999999776;9.999999747e-05;50;50;1.227106214;0;0;0;0
857.433454;-0.0239585191;-0.02370407991;0.0008201611927;-14.54882813;0;1;1;1;0.01171875;7.006492322e-45;1;0.009999999776;9.999999747e-05;50;50;1.22344327;0;0;0;0
857.434504;-0.0239585191;-0.02370407991;0.0008201611927;-14.54882813;0;1;1;1;0.01171875;7.006492322e-45;1;0.009999999776;9.999999747e-05;50;50;1.220390677;0;0;0;0
857.435204;-0.0239585191;-0.02370407991;0.0008201611927;-14.54882813;0;1;1;1;0.01171875;7.006492322e-45;1;0.009999999776;9.999999747e-05;50;50;1.19169724;0;0;0;0
857.436254;-0.0239585191;-0.02370407991;0.0008201611927;-14.54882813;0;1;1;1;0.01171875;7.006492322e-45;1;0.009999999776;9.999999747e-05;50;50;1.165445685;0;0;0;0
857.437304;-0.0239585191;-0.02370407991;0.0008201611927;-14.54882813;0;1;1;1;0.01171875;7.006492322e-45;1;0.009999999776;9.999999747e-05;50;50;1.272283316;0;0;0;0
857.438354;-0.0239585191;-0.02370407991;0.0008201611927;-14.54882813;0;1;1;1;0.01171875;7.006492322e-45;1;0.009999999776;9.999999747e-05;50;50;1.23382175;0;0;0;0
857.439404;-0.0239585191;-0.02370407991;0.0008201611927;-14.54882813;0;1;1;1;0.01171875;7.006492322e-45;1;0.009999999776;9.999999747e-05;50;50;1.242979288;0;0;0;0
857.440454;-0.0239585191;-0.02370407991;0.0008201611927;-14.54882813;0;1;1;1;0.01171875;7.006492322e-45;1;0.009999999776;9.999999747e-05;50;50;1.243589759;0;0;0;0
857.441504;-0.0239585191;-0.02370407991;0.0008201611927;-14.54882813;0;1;1;1;0.01171875;7.006492322e-45;1;0.009999999776;9.999999747e-05;50;50;1.237484694;0;0;0;0
857.442204;-0.0239585191;-0.02370407991;0.0008201611927;-14.54882813;0;1;1;1;0.01171875;7.006492322e-45;1;0.009999999776;9.999999747e-05;50;50;1.220390677;0;0;0;0
857.443254;-0.0239585191;-0.02370407991;0.0008201611927;-14.54882813;0;1;1;1;0.01171875;7.006492322e-45;1;0.009999999776;9.999999747e-05;50;50;1.205738664;0;0;0;0
857.444304;-0.0239585191;-0.02370407991;0.0008201611927;-14.54882813;0;1;1;1;0.01171875;7.006492322e-45;1;0.009999999776;9.999999747e-05;50;50;1.232600689;0;0;0;0
857.445354;-0.0239585191;-0.02370407991;0.0008201611927;-14.54882813;0;1;1;1;0.01171875;7.006492322e-45;1;0.009999999776;9.999999747e-05;50;50;1.267399311;0;0;0;0
857.446404;-0.0239585191;-0.02370407991;0.0008201611927;-14.54882813;0;1;1;1;0.01171875;7.006492322e-45;1;0.009999999776;9.999999747e-05;50;50;1.2124542;0;0;0;0
857.447454;-0.0239585191;-0.02370407991;0.0008201611927;-14.54882813;0;1;1;1;0.01171875;7.006492322e-45;1;0.009999999776;9.999999747e-05;50;50;1.267399311;0;0;0;0
857.448154;-0.0239585191;-0.02370407991;0.0008201611927;-14.54882813;0;1;1;1;0.01171875;7.006492322e-45;1;0.009999999776;9.999999747e-05;50;50;1.230158687;0;0;0;0
857.449204;-0.0239585191;-0.02370407991;0.0008201611927;-14.54882813;0;1;1;1;0.01171875;7.006492322e-45;1;0.009999999776;9.999999747e-05;50;50;1.224664211;0;0;0;0
857.450254;-0.0239585191;-0.02370407991;0.0008201611927;-14.54882813;0;1;1;1;0.01171875;7.006492322e-45;1;0.009999999776;9.999999747e-05;50;50;1.217948675;0;0;0;0
857.451304;-0.0239585191;-0.02370407991;0.0008201611927;-14.54882813;0;1;1;1;0.01171875;7.006492322e-45;1;0.009999999776;9.999999747e-05;50;50;1.215506673;0;0;0;0
857.452354;-0.0239585191;-0.02370407991;0.0008201611927;-14.54882813;0;1;1;1;0.01171875;7.006492322e-45;1;0.009999999776;9.999999747e-05;50;50;1.207570195;0;0;0;0
857.453404;-0.0239585191;-0.02370407991;0.0008201611927;-14.54882813;0;1;1;1;0.01171875;7.006492322e-45;1;0.009999999776;9.999999747e-05;50;50;1.221611738;0;0;0;0
857.454454;-0.0239585191;-0.02370407991;0.0008201611927;-14.54882813;0;1;1;1;0.01171875;7.006492322e-45;1;0.009999999776;9.999999747e-05;50;50;1.136141658;0;0;0;0
857.455154;-0.0239585191;-0.02370407991;0.0008201611927;-14.54882813;0;1;1;1;0.01171875;7.006492322e-45;1;0.009999999776;9.999999747e-05;50;50;1.231990218;0;0;0;0
857.456204;-0.0239585191;-0.02370407991;0.0008201611927;-14.54882813;0;1;1;1;0.01171875;7.006492322e-45;1;0.009999999776;9.999999747e-05;50;50;1.225885272;0;0;0;0
857.457254;-0.0239585191;-0.02370407991;0.0008201611927;-14.54882813;0;1;1;1;0.01171875;7.006492322e-45;1;0.009999999776;9.999999747e-05;50;50;1.225274682;0;0;0;0
857.458304;-0.0239585191;-0.02370407991;0.0008201611927;-14.54882813;0;1;1;1;0.01171875;7.006492322e-45;1;0.009999999776;9.999999747e-05;50;50;1.228327274;0;0;0;0
857.459354;-0.0239585191;-0.02370407991;0.0008201611927;-14.54882813;0;1;1;1;0.01171875;7.006492322e-45;1;0.009999999776;9.999999747e-05;50;50;1.230158687;0;0;0;0
857.460404;-0.0239585191;-0.02370407991;0.0008201611927;-14.54882813;0;1;1;1;0.01171875;7.006492322e-45;1;0.009999999776;9.999999747e-05;50;50;1.225274682;0;0;0;0
857.461454;-0.0239585191;-0.02370407991;0.0008201611927;-14.54882813;0;1;1;1;0.01171875;7.006492322e-45;1;0.009999999776;9.999999747e-05;50;50;1.217338204;0;0;0;0
857.462154;-0.0239585191;-0.02370407991;0.0008201611927;-14.54882813;0;1;1;1;0.01171875;7.006492322e-45;1;0.009999999776;9.999999747e-05;50;50;1.224664211;0;0;0;0
857.463204;-0.0239585191;-0.02370407991;0.0008201611927;-14.54882813;0;1;1;1;0.01171875;7.006492322e-45;1;0.009999999776;9.999999747e-05;50;50;1.241147757;0;0;0;0
857.464254;-0.0239585191;-0.02370407991;0.0008201611927;-14.54882813;0;1;1;1;0.01171875;7.006492322e-45;1;0.009999999776;9.999999747e-05;50;50;1.241758227;0;0;0;0
857.465304;-0.0239585191;-0.02370407991;0.0008201611927;-14.54882813;0;1;1;1;0.01171875;7.006492322e-45;1;0.009999999776;9.999999747e-05;50;50;1.238705754;0;0;0;0
857.466354;-0.0239585191;-0.02370407991;0.0008201611927;-14.54882813;0;1;1;1;0.01171875;7.006492322e-45;1;0.009999999776;9.999999747e-05;50;50;1.23382175;0;0;0;0
857.467404;-0.0239585191;-0.02370407991;0.0008201611927;-14.54882813;0;1;1;1;0.01171875;7.006492322e-45;1;0.009999999776;9.999999747e-05;50;50;1.227106214;0;0;0;0
857.468454;-0.0239585191;-0.02370407991;0.0008201611927;-14.54882813;0;1;1;1;0.01171875;7.006492322e-45;1;0.009999999776;9.999999747e-05;50;50;1.229548216;0;0;0;0
857.469154;-0.0239585191;-0.02370407991;0.0008201611927;-14.54882813;0;1;1;1;0.01171875;7.006492322e-45;1;0.009999999776;9.999999747e-05;50;50;1.178876638;0;0;0;0
857.470204;-0.0239585191;-0.02370407991;0.0008201611927;-14.54882813;0;1;1;1;0.01171875;7.006492322e-45;1;0.009999999776;9.999999747e-05;50;50;1.19108665;0;0;0;0
857.471254;-0.0239585191;-0.02370407991;0.0008201611927;-14.54882813;0;1;1;1;0.01171875;7.006492322e-45;1;0.009999999776;9.999999747e-05;50;50;1.26617837;0;0;0;0
857.472304;-0.0239585191;-0.02370407991;0.0008201611927;-14.54882813;0;1;1;1;0.01171875;7.006492322e-45;1;0.009999999776;9.999999747e-05;50;50;1.271672845;0;0;0;0
857.473354;-0.0239585191;-0.02370407991;0.0008201611927;-14.54882813;0;1;1;1;0.01171875;7.006492322e-45;1;0.009999999776;9.999999747e-05;50;50;1.232600689;0;0;0;0
857.474404;-0.0239585191;-0.02370407991;0.0008201611927;-14.54882813;0;1;1;1;0.01171875;7.006492322e-45;1;0.009999999776;9.999999747e-05;50;50;1.232600689;0;0;0;0
857.475104;-0.0239585191;-0.02370407991;0.0008201611927;-14.54882813;0;1;1;1;0.01171875;7.006492322e-45;1;0.009999999776;9.999999747e-05;50;50;1.2124542;0;0;0;0
857.476154;-0.0239585191;-0.02370407991;0.0008201611927;-14.54882813;0;1;1;1;0.01171875;7.006492322e-45;1;0.009999999776;9.999999747e-05;50;50;1.213675261;0;0;0;0
857.477204;-0.0239585191;-0.02370407991;0.0008201611927;-14.54882813;0;1;1;1;0.01171875;7.006492322e-45;1;0.009999999776;9.999999747e-05;50;50;1.213675261;0;0;0;0
857.478254;-0.0239585191;-0.02370407991;0.0008201611927;-14.54882813;0;1;1;1;0.01171875;7.006492322e-45;1;0.009999999776;9.999999747e-05;50;50;1.215506673;0;0;0;0
857.479304;-0.0239585191;-0.02370407991;0.0008201611927;-14.54882813;0;1;1;1;0.01171875;7.006492322e-45;1;0.009999999776;9.999999747e-05;50;50;1.208791256;0;0;0;0
857.480354;-0.0239585191;-0.02370407991;0.0008201611927;-14.54882813;0;1;1;1;0.01171875;7.006492322e-45;1;0.009999999776;9.999999747e-05;50;50;1.199633718;0;0;0;0
857.481404;-0.0239585191;-0.02370407991;0.0008201611927;-14.54882813;0;1;1;1;0.01171875;7.006492322e-45;1;0.009999999776;9.999999747e-05;50;50;1.216117263;0;0;0;0
857.482104;-0.0239585191;-0.02370407991;0.0008201611927;-14.54882813;0;1;1;1;0.01171875;7.006492322e-45;1;0.009999999776;9.999999747e-05;50;50;1.238095284;0;0;0;0
857.483154;-0.0239585191;-0.02370407991;0.0008201611927;-14.54882813;0;1;1;1;0.01171875;7.006492322e-45;1;0.009999999776;9.999999747e-05;50;50;1.230158687;0;0;0;0
857.484204;-0.0239585191;-0.02370407991;0.0008201611927;-14.54882813;0;1;1;1;0.01171875;7.006492322e-45;1;0.009999999776;9.999999747e-05;50;50;1.224664211;0;0;0;0
857.485254;-0.0239585191;-0.02370407991;0.0008201611927;-14.54882813;0;1;1;1;0.01171875;7.006492322e-45;1;0.009999999776;9.999999747e-05;50;50;1.22283268;0;0;0;0
857.486304;-0.0239585191;-0.02370407991;0.0008201611927;-14.54882813;0;1;1;1;0.01171875;7.006492322e-45;1;0.009999999776;9.999999747e-05;50;50;1.236263752;0;0;0;0
857.487354;-0.0239585191;-0.02370407991;0.0008201611927;-14.54882813;0;1;1;1;0.01171875;7.006492322e-45;1;0.009999999776;9.999999747e-05;50;50;1.257631302;0;0;0;0
857.488404;-0.0239585191;-0.02370407991;0.0008201611927;-14.54882813;0;1;1;1;0.01171875;7.006492322e-45;1;0.009999999776;9.999999747e-05;50;50;1.268009901;0;0;0;0
857.489104;-0.0239585191;-0.02370407991;0.0008201611927;-14.54882813;0;1;1;1;0.01171875;7.006492322e-45;1;0.009999999776;9.999999747e-05;50;50;1.231990218;0;0;0;0
857.490154;-0.0239585191;-0.02370407991;0.0008201611927;-14.54882813;0;1;1;1;0.01171875;7.006492322e-45;1;0.009999999776;9.999999747e-05;50;50;1.228327274;0;0;0;0
857.491204;-0.0239585191;-0.02370407991;0.0008201611927;-14.54882813;0;1;1;1;0.01171875;7.006492322e-45;1;0.009999999776;9.999999747e-05;50;50;1.227716684;0;0;0;0
857.492254;-0.0239585191;-0.02370407991;0.0008201611927;-14.54882813;0;1;1;1;0.01171875;7.006492322e-45;1;0.009999999776;9.999999747e-05;50;50;1.22283268;0;0;0;0
857.493304;-0.0239585191;-0.02370407991;0.0008201611927;-14.54882813;0;1;1;1;0.01171875;7.006492322e-45;1;0.009999999776;9.999999747e-05;50;50;1.22283268;0;0;0;0
857.494354;-0.0239585191;-0.02370407991;0.0008201611927;-14.54882813;0;1;1;1;0.01171875;7.006492322e-45;1;0.009999999776;9.999999747e-05;50;50;1.215506673;0;0;0;0
857.495404;-0.0239585191;-0.02370407991;0.0008201611927;-14.54882813;0;1;1;1;0.01171875;7.006492322e-45;1;0.009999999776;9.999999747e-05;50;50;1.213675261;0;0;0;0
857.496104;-0.0239585191;-0.02370407991;0.0008201611927;-14.54882813;0;1;1;1;0.01171875;7.006492322e-45;1;0.009999999776;9.999999747e-05;50;50;1.260683775;0;0;0;0
857.497154;-0.0239585191;-0.02370407991;0.0008201611927;-14.54882813;0;1;1;1;0.01171875;7.006492322e-45;1;0.009999999776;9.999999747e-05;50;50;1.239926696;0;0;0;0
857.498204;-0.0239585191;-0.02370407991;0.0008201611927;-14.54882813;0;1;1;1;0.01171875;7.006492322e-45;1;0.009999999776;9.999999747e-05;50;50;1.239926696;0;0;0;0
857.499254;-0.0239585191;-0.02370407991;0.0008201611927;-14.54882813;0;1;1;1;0.01171875;7.006492322e-45;1;0.009999999776;9.999999747e-05;50;50;1.239926696;0;0;0;0
857.500304;-0.0239585191;-0.02370407991;0.0008201611927;-14.54882813;0;1;1;1;0.01171875;7.006492322e-45;1;0.009999999776;9.999999747e-05;50;50;1.231990218;0;0;0;0
857.501354;-0.0239585191;-0.02370407991;0.0008201611927;-14.54882813;0;1;1;1;0.01171875;7.006492322e-45;1;0.009999999776;9.999999747e-05;50;50;1.231990218;0;0;0;0
857.502054;-0.0239585191;-0.02370407991;0.0008201611927;-14.54882813;0;1;1;1;0.01171875;7.006492322e-45;1;0.009999999776;9.999999747e-05;50;50;1.152625203;0;0;0;0
857.503104;-0.0239585191;-0.02370407991;0.0008201611927;-14.54882813;0;1;1;1;0.01171875;7.006492322e-45;1;0.009999999776;9.999999747e-05;50;50;1.2448107;0;0;0;0
857.504154;-0.0239585191;-0.02370407991;0.0008201611927;-14.54882813;0;1;1;1;0.01171875;7.006492322e-45;1;0.009999999776;9.999999747e-05;50;50;1.20207572;0;0;0;0
857.505204;-0.0239585191;-0.02370407991;0.0008201611927;-14.54882813;0;1;1;1;0.01171875;7.006492322e-45;1;0.009999999776;9.999999747e-05;50;50;1.251526356;0;0;0;0
857.506254;-0.0239585191;-0.02370407991;0.0008201611927;-14.54882813;0;1;1;1;0.01171875;7.006492322e-45;1;0.009999999776;9.999999747e-05;50;50;1.238095284;0;0;0;0
857.507304;-0.0239585191;-0.02370407991;0.0008201611927;-14.54882813;0;1;1;1;0.01171875;7.006492322e-45;1;0.009999999776;9.999999747e-05;50;50;1.239316225;0;0;0;0
857.508354;-0.0239585191;-0.02370407991;0.0008201611927;-14.54882813;0;1;1;1;0.01171875;7.006492322e-45;1;0.009999999776;9.999999747e-05;50;50;1.235042691;0;0;0;0
857.509054;-0.0239585191;-0.02370407991;0.0008201611927;-14.54882813;0;1;1;1;0.01171875;7.006492322e-45;1;0.009999999776;9.999999747e-05;50;50;1.221611738;0;0;0;0
857.510104;-0.0239585191;-0.02370407991;0.0008201611927;-14.54882813;0;1;1;1;0.01171875;7.006492322e-45;1;0.009999999776;9.999999747e-05;50;50;1.216117263;0;0;0;0
857.511154;-0.0239585191;-0.02370407991;0.0008201611927;-14.54882813;0;1;1;1;0.01171875;7.006492322e-45;1;0.009999999776;9.999999747e-05;50;50;1.221001267;0;0;0;0
857.512204;-0.0239585191;-0.02370407991;0.0008201611927;-14.54882813;0;1;1;1;0.01171875;7.006492322e-45;1;0.009999999776;9.999999747e-05;50;50;1.209401727;0;0;0;0
857.513254;-0.0239585191;-0.02370407991;0.0008201611927;-14.54882813;0;1;1;1;0.01171875;7.006492322e-45;1;0.009999999776;9.999999747e-05;50;50;1.166056156;0;0;0;0
857.514304;-0.0239585191;-0.02370407991;0.0008201611927;-14.54882813;0;1;1;1;0.01171875;7.006492322e-45;1;0.009999999776;9.999999747e-05;50;50;1.262515306;0;0;0;0
857.515354;-0.0239585191;-0.02370407991;0.0008201611927;-14.54882813;0;1;1;1;0.01171875;7.006492322e-45;1;0.009999999776;9.999999747e-05;50;50;1.262515306;0;0;0;0
857.516054;-0.0239585191;-0.02370407991;0.0008201611927;-14.54882813;0;1;1;1;0.01171875;7.006492322e-45;1;0.009999999776;9.999999747e-05;50;50;1.225885272;0;0;0;0
857.517104;-0.0239585191;-0.02370407991;0.0008201611927;-14.54882813;0;1;1;1;0.01171875;7.006492322e-45;1;0.009999999776;9.999999747e-05;50;50;1.222222209;0;0;0;0
857.518154;-0.0239585191;-0.02370407991;0.0008201611927;-14.54882813;0;1;1;1;0.01171875;7.006492322e-45;1;0.009999999776;9.999999747e-05;50;50;1.219780207;0;0;0;0
857.519204;-0.0239585191;-0.02370407991;0.0008201611927;-14.54882813;0;1;1;1;0.01171875;7.006492322e-45;1;0.009999999776;9.999999747e-05;50;50;1.222222209;0;0;0;0
857.520254;-0.0239585191;-0.02370407991;0.0008201611927;-14.54882813;0;1;1;1;0.01171875;7.006492322e-45;1;0.009999999776;9.999999747e-05;50;50;1.231379747;0;0;0;0
857.521304;-0.0239585191;-0.02370407991;0.0008201611927;-14.54882813;0;1;1;1;0.01171875;7.006492322e-45;1;0.009999999776;9.999999747e-05;50;50;1.232600689;0;0;0;0
857.522354;-0.0239585191;-0.02370407991;0.0008201611927;-14.54882813;0;1;1;1;0.01171875;7.006492322e-45;1;0.009999999776;9.999999747e-05;50;50;1.2448107;0;0;0;0
857.523054;-0.0239585191;-0.02370407991;0.0008201611927;-14.54882813;0;1;1;1;0.01171875;7.006492322e-45;1;0.009999999776;9.999999747e-05;50;50;1.239926696;0;0;0;0
857.524104;-0.0239585191;-0.02370407991;0.0008201611927;-14.54882813;0;1;1;1;0.01171875;7.006492322e-45;1;0.009999999776;9.999999747e-05;50;50;1.23382175;0;0;0;0
857.525154;-0.0239585191;-0.02370407991;0.0008201611927;-14.54882813;0;1;1;1;0.01171875;7.006492322e-45;1;0.009999999776;9.999999747e-05;50;50;1.236263752;0;0;0;0
857.526204;-0.0239585191;-0.02370407991;0.0008201611927;-14.54882813;0;1;1;1;0.01171875;7.006492322e-45;1;0.009999999776;9.999999747e-05;50;50;1.230769277;0;0;0;0
857.527254;-0.0239585191;-0.02370407991;0.0008201611927;-14.54882813;0;1;1;1;0.01171875;7.006492322e-45;1;0.009999999776;9.999999747e-05;50;50;1.228327274;0;0;0;0
857.528304;-0.0239585191;-0.02370407991;0.0008201611927;-14.54882813;0;1;1;1;0.01171875;7.006492322e-45;1;0.009999999776;9.999999747e-05;50;50;1.220390677;0;0;0;0
857.529004;-0.0239585191;-0.02370407991;0.0008201611927;-14.54882813;0;1;1;1;0.01171875;7.006492322e-45;1;0.009999999776;9.999999747e-05;50;50;1.227716684;0;0;0;0
857.530054;-0.0239585191;-0.02370407991;0.0008201611927;-14.54882813;0;1;1;1;0.01171875;7.006492322e-45;1;0.009999999776;9.999999747e-05;50;50;1.235042691;0;0;0;0
857.531104;-0.0239585191;-0.02370407991;0.0008201611927;-14.54882813;0;1;1;1;0.01171875;7.006492322e-45;1;0.009999999776;9.999999747e-05;50;50;1.236263752;0;0;0;0
857.532154;-0.0239585191;-0.02370407991;0.0008201611927;-14.54882813;0;1;1;1;0.01171875;7.006492322e-45;1;0.009999999776;9.999999747e-05;50;50;1.236263752;0;0;0;0
857.533204;-0.0239585191;-0.02370407991;0.0008201611927;-14.54882813;0;1;1;1;0.01171875;7.006492322e-45;1;0.009999999776;9.999999747e-05;50;50;1.228937745;0;0;0;0
857.534254;-0.0239585191;-0.02370407991;0.0008201611927;-14.54882813;0;1;1;1;0.01171875;7.006492322e-45;1;0.009999999776;9.999999747e-05;50;50;1.225274682;0;0;0;0
857.535304;-0.0239585191;-0.02370407991;0.0008201611927;-14.54882813;0;1;1;1;0.01171875;7.006492322e-45;1;0.009999999776;9.999999747e-05;50;50;1.228937745;0;0;0;0
857.536004;-0.0239585191;-0.02370407991;0.0008201611927;-14.54882813;0;1;1;1;0.01171875;7.006492322e-45;1;0.009999999776;9.999999747e-05;50;50;1.216727734;0;0;0;0
857.537054;-0.0239585191;-0.02370407991;0.0008201611927;-14.54882813;0;1;1;1;0.01171875;7.006492322e-45;1;0.009999999776;9.999999747e-05;50;50;1.261904836;0;0;0;0
857.538104;-0.0239585191;-0.02370407991;0.0008201611927;-14.54882813;0;1;1;1;0.01171875;7.006492322e-45;1;0.009999999776;9.999999747e-05;50;50;1.185592175;0;0;0;0
857.539154;-0.0239585191;-0.02370407991;0.0008201611927;-14.54882813;0;1;1;1;0.01171875;7.006492322e-45;1;0.009999999776;9.999999747e-05;50;50;1.278388381;0;0;0;0
857.540204;-0.0239585191;-0.02370407991;0.0008201611927;-14.54882813;0;1;1;1;0.01171875;7.006492322e-45;1;0.009999999776;9.999999747e-05;50;50;1.24420023;0;0;0;0
857.541254;-0.0239585191;-0.02370407991;0.0008201611927;-14.54882813;0;1;1;1;0.01171875;7.006492322e-45;1;0.009999999776;9.999999747e-05;50;50;1.242368698;0;0;0;0
857.542304;-0.0239585191;-0.02370407991;0.0008201611927;-14.54882813;0;1;1;1;0.01171875;7.006492322e-45;1;0.009999999776;9.999999747e-05;50;50;1.238705754;0;0;0;0
857.543004;-0.0239585191;-0.02370407991;0.0008201611927;-14.54882813;0;1;1;1;0.01171875;7.006492322e-45;1;0.009999999776;9.999999747e-05;50;50;1.227716684;0;0;0;0
857.544054;-0.0239585191;-0.02370407991;0.0008201611927;-14.54882813;0;1;1;1;0.01171875;7.006492322e-45;1;0.009999999776;9.999999747e-05;50;50;1.235042691;0;0;0;0
857.545104;-0.0239585191;-0.02370407991;0.0008201611927;-14.54882813;0;1;1;1;0.01171875;7.006492322e-45;1;0.009999999776;9.999999747e-05;50;50;1.224664211;0;0;0;0
857.546154;-0.0239585191;-0.02370407991;0.0008201611927;-14.54882813;0;1;1;1;0.01171875;7.006492322e-45;1;0.009999999776;9.999999747e-05;50;50;1.220390677;0;0;0;0
857.547204;-0.0239585191;-0.02370407991;0.0008201611927;-14.54882813;0;1;1;1;0.01171875;7.006492322e-45;1;0.009999999776;9.999999747e-05;50;50;1.168498158;0;0;0;0
857.548254;-0.0239585191;-0.02370407991;0.0008201611927;-14.54882813;0;1;1;1;0.01171875;7.006492322e-45;1;0.009999999776;9.999999747e-05;50;50;1.200854659;0;0;0;0
857.549304;-0.0239585191;-0.02370407991;0.0008201611927;-14.54882813;0;1;1;1;0.01171875;7.006492322e-45;1;0.009999999776;9.999999747e-05;50;50;1.193528652;0;0;0;0
857.550004;-0.0239585191;-0.02370407991;0.0008201611927;-14.54882813;0;1;1;1;0.01171875;7.006492322e-45;1;0.009999999776;9.999999747e-05;50;50;1.22344327;0;0;0;0
857.551054;-0.0239585191;-0.02370407991;0.0008201611927;-14.54882813;0;1;1;1;0.01171875;7.006492322e-45;1;0.009999999776;9.999999747e-05;50;50;1.218559265;0;0;0;0
857.552104;-0.0239585191;-0.02370407991;0.0008201611927;-14.54882813;0;1;1;1;0.01171875;7.006492322e-45;1;0.009999999776;9.999999747e-05;50;50;1.215506673;0;0;0;0
857.553154;-0.0239585191;-0.02370407991;0.0008201611927;-14.54882813;0;1;1;1;0.01171875;7.006492322e-45;1;0.009999999776;9.999999747e-05;50;50;1.216727734;0;0;0;0
857.554204;-0.0239585191;-0.02370407991;0.0008201611927;-14.54882813;0;1;1;1;0.01171875;7.006492322e-45;1;0.009999999776;9.999999747e-05;50;50;1.208791256;0;0;0;0
857.555254;-0.0239585191;-0.02370407991;0.0008201611927;-14.54882813;0;1;1;1;0.01171875;7.006492322e-45;1;0.009999999776;9.999999747e-05;50;50;1.258852363;0;0;0;0
857.555954;-0.0239585191;-0.02370407991;0.0008201611927;-14.54882813;0;1;1;1;0.01171875;7.006492322e-45;1;0.009999999776;9.999999747e-05;50;50;1.235042691;0;0;0;0
857.557004;-0.0239585191;-0.02370407991;0.0008201611927;-14.54882813;0;1;1;1;0.01171875;7.006492322e-45;1;0.009999999776;9.999999747e-05;50;50;1.231990218;0;0;0;0
857.558054;-0.0239585191;-0.02370407991;0.0008201611927;-14.54882813;0;1;1;1;0.01171875;7.006492322e-45;1;0.009999999776;9.999999747e-05;50;50;1.23382175;0;0;0;0
857.559104;-0.0239585191;-0.02370407991;0.0008201611927;-14.54882813;0;1;1;1;0.01171875;7.006492322e-45;1;0.009999999776;9.999999747e-05;50;50;1.236263752;0;0;0;0
857.560154;-0.0239585191;-0.02370407991;0.0008201611927;-14.54882813;0;1;1;1;0.01171875;7.006492322e-45;1;0.009999999776;9.999999747e-05;50;50;1.231990218;0;0;0;0
857.561204;-0.0239585191;-0.02370407991;0.0008201611927;-14.54882813;0;1;1;1;0.01171875;7.006492322e-45;1;0.009999999776;9.999999747e-05;50;50;1.225885272;0;0;0;0
857.562254;-0.0239585191;-0.02370407991;0.0008201611927;-14.54882813;0;1;1;1;0.01171875;7.006492322e-45;1;0.009999999776;9.999999747e-05;50;50;1.227106214;0;0;0;0
857.562954;-0.0239585191;-0.02370407991;0.0008201611927;-14.54882813;0;1;1;1;0.01171875;7.006492322e-45;1;0.009999999776;9.999999747e-05;50;50;1.230158687;0;0;0;0
857.564004;-0.0239585191;-0.02370407991;0.0008201611927;-14.54882813;0;1;1;1;0.01171875;7.006492322e-45;1;0.009999999776;9.999999747e-05;50;50;1.242979288;0;0;0;0
857.565054;-0.0239585191;-0.02370407991;0.0008201611927;-14.54882813;0;1;1;1;0.01171875;7.006492322e-45;1;0.009999999776;9.999999747e-05;50;50;1.2448107;0;0;0;0
857.566104;-0.0239585191;-0.02370407991;0.0008201611927;-14.54882813;0;1;1;1;0.01171875;7.006492322e-45;1;0.009999999776;9.999999747e-05;50;50;1.239926696;0;0;0;0
857.567154;-0.0239585191;-0.02370407991;0.0008201611927;-14.54882813;0;1;1;1;0.01171875;7.006492322e-45;1;0.009999999776;9.999999747e-05;50;50;1.231990218;0;0;0;0
857.568204;-0.0239585191;-0.02370407991;0.0008201611927;-14.54882813;0;1;1;1;0.01171875;7.006492322e-45;1;0.009999999776;9.999999747e-05;50;50;1.229548216;0;0;0;0
857.569254;-0.0239585191;-0.02370407991;0.0008201611927;-14.54882813;0;1;1;1;0.01171875;7.006492322e-45;1;0.009999999776;9.999999747e-05;50;50;1.22344327;0;0;0;0
857.569954;-0.0239585191;-0.02370407991;0.0008201611927;-14.54882813;0;1;1;1;0.01171875;7.006492322e-45;1;0.009999999776;9.999999747e-05;50;50;1.210622668;0;0;0;0
857.571004;-0.0239585191;-0.02370407991;0.0008201611927;-14.54882813;0;1;1;1;0.01171875;7.006492322e-45;1;0.009999999776;9.999999747e-05;50;50;1.199023247;0;0;0;0
857.572054;-0.0239585191;-0.02370407991;0.0008201611927;-14.54882813;0;1;1;1;0.01171875;7.006492322e-45;1;0.009999999776;9.999999747e-05;50;50;1.225885272;0;0;0;0
857.573104;-0.0239585191;-0.02370407991;0.0008201611927;-14.54882813;0;1;1;1;0.01171875;7.006492322e-45;1;0.009999999776;9.999999747e-05;50;50;1.257020831;0;0;0;0
857.574154;-0.0239585191;-0.02370407991;0.0008201611927;-14.54882813;0;1;1;1;0.01171875;7.006492322e-45;1;0.009999999776;9.999999747e-05;50;50;1.155677676;0;0;0;0
857.575204;-0.0239585191;-0.02370407991;0.0008201611927;-14.54882813;0;1;1;1;0.01171875;7.006492322e-45;1;0.009999999776;9.999999747e-05;50;50;1.237484694;0;0;0;0
857.576254;-0.0239585191;-0.02370407991;0.0008201611927;-14.54882813;0;1;1;1;0.01171875;7.006492322e-45;1;0.009999999776;9.999999747e-05;50;50;1.235042691;0;0;0;0
857.576954;-0.0239585191;-0.02370407991;0.0008201611927;-14.54882813;0;1;1;1;0.01171875;7.006492322e-45;1;0.009999999776;9.999999747e-05;50;50;1.214896202;0;0;0;0
857.578004;-0.0239585191;-0.02370407991;0.0008201611927;-14.54882813;0;1;1;1;0.01171875;7.006492322e-45;1;0.009999999776;9.999999747e-05;50;50;1.219780207;0;0;0;0
857.579054;-0.0239585191;-0.02370407991;0.0008201611927;-14.54882813;0;1;1;1;0.01171875;7.006492322e-45;1;0.009999999776;9.999999747e-05;50;50;1.25579977;0;0;0;0
857.580104;-0.0239585191;-0.02370407991;0.0008201611927;-14.54882813;0;1;1;1;0.01171875;7.006492322e-45;1;0.009999999776;9.999999747e-05;50;50;1.183760643;0;0;0;0
857.581154;-0.0239585191;-0.02370407991;0.0008201611927;-14.54882813;0;1;1;1;0.01171875;7.006492322e-45;1;0.009999999776;9.999999747e-05;50;50;1.240537286;0;0;0;0
857.582204;-0.0239585191;-0.02370407991;0.0008201611927;-14.54882813;0;1;1;1;0.01171875;7.006492322e-45;1;0.009999999776;9.999999747e-05;50;50;1.28815639;0;0;0;0
857.582904;-0.0239585191;-0.02370407991;0.0008201611927;-14.54882813;0;1;1;1;0.01171875;7.006492322e-45;1;0.009999999776;9.999999747e-05;50;50;1.237484694;0;0;0;0
857.583954;-0.0239585191;-0.02370407991;0.0008201611927;-14.54882813;0;1;1;1;0.01171875;7.006492322e-45;1;0.009999999776;9.999999747e-05;50;50;1.236263752;0;0;0;0
857.585004;-0.0239585191;-0.02370407991;0.0008201611927;-14.54882813;0;1;1;1;0.01171875;7.006492322e-45;1;0.009999999776;9.999999747e-05;50;50;1.225274682;0;0;0;0
857.586054;-0.0239585191;-0.02370407991;0.0008201611927;-14.54882813;0;1;1;1;0.01171875;7.006492322e-45;1;0.009999999776;9.999999747e-05;50;50;1.226495743;0;0;0;0
857.587104;-0.0239585191;-0.02370407991;0.0008201611927;-14.54882813;0;1;1;1;0.01171875;7.006492322e-45;1;0.009999999776;9.999999747e-05;50;50;1.220390677;0;0;0;0
857.588154;-0.0239585191;-0.02370407991;0.0008201611927;-14.54882813;0;1;1;1;0.01171875;7.006492322e-45;1;0.009999999776;9.999999747e-05;50;50;1.241758227;0;0;0;0
857.589204;-0.0239585191;-0.02370407991;0.0008201611927;-14.54882813;0;1;1;1;0.01171875;7.006492322e-45;1;0.009999999776;9.999999747e-05;50;50;1.246031761;0;0;0;0
857.589904;-0.0239585191;-0.02370407991;0.0008201611927;-14.54882813;0;1;1;1;0.01171875;7.006492322e-45;1;0.009999999776;9.999999747e-05;50;50;1.237484694;0;0;0;0
857.590954;-0.0239585191;-0.02370407991;0.0008201611927;-14.54882813;0;1;1;1;0.01171875;7.006492322e-45;1;0.009999999776;9.999999747e-05;50;50;1.228937745;0;0;0;0
857.592004;-0.0239585191;-0.02370407991;0.0008201611927;-14.54882813;0;1;1;1;0.01171875;7.006492322e-45;1;0.009999999776;9.999999747e-05;50;50;1.228937745;0;0;0;0
857.593054;-0.0239585191;-0.02370407991;0.0008201611927;-14.54882813;0;1;1;1;0.01171875;7.006492322e-45;1;0.009999999776;9.999999747e-05;50;50;1.225885272;0;0;0;0
857.594104;-0.0239585191;-0.02370407991;0.0008201611927;-14.54882813;0;1;1;1;0.01171875;7.006492322e-45;1;0.009999999776;9.999999747e-05;50;50;1.219780207;0;0;0;0
857.595154;-0.0239585191;-0.02370407991;0.0008201611927;-14.54882813;0;1;1;1;0.01171875;7.006492322e-45;1;0.009999999776;9.999999747e-05;50;50;1.217948675;0;0;0;0
857.596204;-0.0239585191;-0.02370407991;0.0008201611927;-14.54882813;0;1;1;1;0.01171875;7.006492322e-45;1;0.009999999776;9.999999747e-05;50;50;1.216727734;0;0;0;0
857.596904;-0.0239585191;-0.02370407991;0.0008201611927;-14.54882813;0;1;1;1;0.01171875;7.006492322e-45;1;0.009999999776;9.999999747e-05;50;50;1.230769277;0;0;0;0
857.597954;-0.0239585191;-0.02370407991;0.0008201611927;-14.54882813;0;1;1;1;0.01171875;7.006492322e-45;1;0.009999999776;9.999999747e-05;50;50;1.258241892;0;0;0;0
857.599004;-0.0239585191;-0.02370407991;0.0008201611927;-14.54882813;0;1;1;1;0.01171875;7.006492322e-45;1;0.009999999776;9.999999747e-05;50;50;1.24542129;0;0;0;0
857.600054;-0.0239585191;-0.02370407991;0.0008201611927;-14.54882813;0;1;1;1;0.01171875;7.006492322e-45;1;0.009999999776;9.999999747e-05;50;50;1.239926696;0;0;0;0
857.601104;-0.0239585191;-0.02370407991;0.0008201611927;-14.54882813;0;1;1;1;0.01171875;7.006492322e-45;1;0.009999999776;9.999999747e-05;50;50;1.238705754;0;0;0;0
857.602154;-0.0239585191;-0.02370407991;0.0008201611927;-14.54882813;0;1;1;1;0.01171875;7.006492322e-45;1;0.009999999776;9.999999747e-05;50;50;1.233211279;0;0;0;0
857.603204;-0.0239585191;-0.02370407991;0.0008201611927;-14.54882813;0;1;1;1;0.01171875;7.006492322e-45;1;0.009999999776;9.999999747e-05;50;50;1.231379747;0;0;0;0
857.603904;-0.0239585191;-0.02370407991;0.0008201611927;-14.54882813;0;1;1;1;0.01171875;7.006492322e-45;1;0.009999999776;9.999999747e-05;50;50;1.231379747;0;0;0;0
857.604954;-0.0239585191;-0.02370407991;0.0008201611927;-14.54882813;0;1;1;1;0.01171875;7.006492322e-45;1;0.009999999776;9.999999747e-05;50;50;1.175824165;0;0;0;0
857.606004;-0.0239585191;-0.02370407991;0.0008201611927;-14.54882813;0;1;1;1;0.01171875;7.006492322e-45;1;0.009999999776;9.999999747e-05;50;50;1.23382175;0;0;0;0
857.607054;-0.0239585191;-0.02370407991;0.0008201611927;-14.54882813;0;1;1;1;0.01171875;7.006492322e-45;1;0.009999999776;9.999999747e-05;50;50;1.171550632;0;0;0;0
857.608104;-0.0239585191;-0.02370407991;0.0008201611927;-14.54882813;0;1;1;1;0.01171875;7.006492322e-45;1;0.009999999776;9.999999747e-05;50;50;1.236263752;0;0;0;0
857.609154;-0.0239585191;-0.02370407991;0.0008201611927;-14.54882813;0;1;1;1;0.01171875;7.006492322e-45;1;0.009999999776;9.999999747e-05;50;50;1.236874223;0;0;0;0
857.609854;-0.0239585191;-0.02370407991;0.0008201611927;-14.54882813;0;1;1;1;0.01171875;7.006492322e-45;1;0.009999999776;9.999999747e-05;50;50;1.220390677;0;0;0;0
857.610904;-0.0239585191;-0.02370407991;0.0008201611927;-14.54882813;0;1;1;1;0.01171875;7.006492322e-45;1;0.009999999776;9.999999747e-05;50;50;1.2124542;0;0;0;0
857.611954;-0.0239585191;-0.02370407991;0.0008201611927;-14.54882813;0;1;1;1;0.01171875;7.006492322e-45;1;0.009999999776;9.999999747e-05;50;50;1.206959724;0;0;0;0
857.613004;-0.0239585191;-0.02370407991;0.0008201611927;-14.54882813;0;1;1;1;0.01171875;7.006492322e-45;1;0.009999999776;9.999999747e-05;50;50;1.236263752;0;0;0;0
857.614054;-0.0239585191;-0.02370407991;0.0008201611927;-14.54882813;0;1;1;1;0.01171875;7.006492322e-45;1;0.009999999776;9.999999747e-05;50;50;1.154456615;0;0;0;0
857.615104;-0.0239585191;-0.02370407991;0.0008201611927;-14.54882813;0;1;1;1;0.01171875;7.006492322e-45;1;0.009999999776;9.999999747e-05;50;50;1.221611738;0;0;0;0
857.616154;-0.0239585191;-0.02370407991;0.0008201611927;-14.54882813;0;1;1;1;0.01171875;7.006492322e-45;1;0.009999999776;9.999999747e-05;50;50;1.269230843;0;0;0;0
857.616854;-0.0239585191;-0.02370407991;0.0008201611927;-14.54882813;0;1;1;1;0.01171875;7.006492322e-45;1;0.009999999776;9.999999747e-05;50;50;1.227716684;0;0;0;0
857.617904;-0.0239585191;-0.02370407991;0.0008201611927;-14.54882813;0;1;1;1;0.01171875;7.006492322e-45;1;0.009999999776;9.999999747e-05;50;50;1.225885272;0;0;0;0
857.618954;-0.0239585191;-0.02370407991;0.0008201611927;-14.54882813;0;1;1;1;0.01171875;7.006492322e-45;1;0.009999999776;9.999999747e-05;50;50;1.230158687;0;0;0;0
857.620004;-0.0239585191;-0.02370407991;0.0008201611927;-14.54882813;0;1;1;1;0.01171875;7.006492322e-45;1;0.009999999776;9.999999747e-05;50;50;1.22283268;0;0;0;0
857.621054;-0.0239585191;-0.02370407991;0.0008201611927;-14.54882813;0;1;1;1;0.01171875;7.006492322e-45;1;0.009999999776;9.999999747e-05;50;50;1.220390677;0;0;0;0
857.622104;-0.0239585191;-0.02370407991;0.0008201611927;-14.54882813;0;1;1;1;0.01171875;7.006492322e-45;1;0.009999999776;9.999999747e-05;50;50;1.197191715;0;0;0;0
857.623154;-0.0239585191;-0.02370407991;0.0008201611927;-14.54882813;0;1;1;1;0.01171875;7.006492322e-45;1;0.009999999776;9.999999747e-05;50;50;1.246642232;0;0;0;0
857.623854;-0.0239585191;-0.02370407991;0.0008201611927;-14.54882813;0;1;1;1;0.01171875;7.006492322e-45;1;0.009999999776;9.999999747e-05;50;50;1.239316225;0;0;0;0
857.624904;-0.0239585191;-0.02370407991;0.0008201611927;-14.54882813;0;1;1;1;0.01171875;7.006492322e-45;1;0.009999999776;9.999999747e-05;50;50;1.240537286;0;0;0;0
857.625954;-0.0239585191;-0.02370407991;0.0008201611927;-14.54882813;0;1;1;1;0.01171875;7.006492322e-45;1;0.009999999776;9.999999747e-05;50;50;1.235042691;0;0;0;0
857.627004;-0.0239585191;-0.02370407991;0.0008201611927;-14.54882813;0;1;1;1;0.01171875;7.006492322e-45;1;0.009999999776;9.999999747e-05;50;50;1.228937745;0;0;0;0
857.628054;-0.0239585191;-0.02370407991;0.0008201611927;-14.54882813;0;1;1;1;0.01171875;7.006492322e-45;1;0.009999999776;9.999999747e-05;50;50;1.227716684;0;0;0;0
857.629104;-0.0239585191;-0.02370407991;0.0008201611927;-14.54882813;0;1;1;1;0.01171875;7.006492322e-45;1;0.009999999776;9.999999747e-05;50;50;1.22344327;0;0;0;0
857.630154;-0.0239585191;-0.02370407991;0.0008201611927;-14.54882813;0;1;1;1;0.01171875;7.006492322e-45;1;0.009999999776;9.999999747e-05;50;50;1.215506673;0;0;0;0
857.630854;-0.0239585191;-0.02370407991;0.0008201611927;-14.54882813;0;1;1;1;0.01171875;7.006492322e-45;1;0.009999999776;9.999999747e-05;50;50;1.208791256;0;0;0;0
857.631904;-0.0239585191;-0.02370407991;0.0008201611927;-14.54882813;0;1;1;1;0.01171875;7.006492322e-45;1;0.009999999776;9.999999747e-05;50;50;1.26617837;0;0;0;0
857.632954;-0.0239585191;-0.02370407991;0.0008201611927;-14.54882813;0;1;1;1;0.01171875;7.006492322e-45;1;0.009999999776;9.999999747e-05;50;50;1.230158687;0;0;0;0
857.634004;-0.0239585191;-0.02370407991;0.0008201611927;-14.54882813;0;1;1;1;0.01171875;7.006492322e-45;1;0.009999999776;9.999999747e-05;50;50;1.231379747;0;0;0;0
857.635054;-0.0239585191;-0.02370407991;0.0008201611927;-14.54882813;0;1;1;1;0.01171875;7.006492322e-45;1;0.009999999776;9.999999747e-05;50;50;1.233211279;0;0;0;0
857.636104;-0.0239585191;-0.02370407991;0.0008201611927;-14.54882813;0;1;1;1;0.01171875;7.006492322e-45;1;0.009999999776;9.999999747e-05;50;50;1.229548216;0;0;0;0
857.636804;-0.0239585191;-0.02370407991;0.0008201611927;-14.54882813;0;1;1;1;0.01171875;7.006492322e-45;1;0.009999999776;9.999999747e-05;50;50;1.236263752;0;0;0;0
857.637854;-0.0239585191;-0.02370407991;0.0008201611927;-14.54882813;0;1;1;1;0.01171875;7.006492322e-45;1;0.009999999776;9.999999747e-05;50;50;1.259462833;0;0;0;0
857.638904;-0.0239585191;-0.02370407991;0.0008201611927;-14.54882813;0;1;1;1;0.01171875;7.006492322e-45;1;0.009999999776;9.999999747e-05;50;50;1.279609323;0;0;0;0
857.639954;-0.0239585191;-0.02370407991;0.0008201611927;-14.54882813;0;1;1;1;0.01171875;7.006492322e-45;1;0.009999999776;9.999999747e-05;50;50;1.195360184;0;0;0;0
857.641004;-0.0239585191;-0.02370407991;0.0008201611927;-14.54882813;0;1;1;1;0.01171875;7.006492322e-45;1;0.009999999776;9.999999747e-05;50;50;1.181318641;0;0;0;0
857.642054;-0.0239585191;-0.02370407991;0.0008201611927;-14.54882813;0;1;1;1;0.01171875;7.006492322e-45;1;0.009999999776;9.999999747e-05;50;50;1.24420023;0;0;0;0
857.643104;-0.0239585191;-0.02370407991;0.0008201611927;-14.54882813;0;1;1;1;0.01171875;7.006492322e-45;1;0.009999999776;9.999999747e-05;50;50;1.243589759;0;0;0;0
857.643804;-0.0239585191;-0.02370407991;0.0008201611927;-14.54882813;0;1;1;1;0.01171875;7.006492322e-45;1;0.009999999776;9.999999747e-05;50;50;1.228327274;0;0;0;0
857.644854;-0.0239585191;-0.02370407991;0.0008201611927;-14.54882813;0;1;1;1;0.01171875;7.006492322e-45;1;0.009999999776;9.999999747e-05;50;50;1.219780207;0;0;0;0
857.645904;-0.0239585191;-0.02370407991;0.0008201611927;-14.54882813;0;1;1;1;0.01171875;7.006492322e-45;1;0.009999999776;9.999999747e-05;50;50;1.261294365;0;0;0;0
857.646954;-0.0239585191;-0.02370407991;0.0008201611927;-14.54882813;0;1;1;1;0.01171875;7.006492322e-45;1;0.009999999776;9.999999747e-05;50;50;1.210012197;0;0;0;0
857.648004;-0.0239585191;-0.02370407991;0.0008201611927;-14.54882813;0;1;1;1;0.01171875;7.006492322e-45;1;0.009999999776;9.999999747e-05;50;50;1.179487228;0;0;0;0
857.649054;-0.0239585191;-0.02370407991;0.0008201611927;-14.54882813;0;1;1;1;0.01171875;7.006492322e-45;1;0.009999999776;9.999999747e-05;50;50;1.267399311;0;0;0;0
857.650104;-0.0239585191;-0.02370407991;0.0008201611927;-14.54882813;0;1;1;1;0.01171875;7.006492322e-45;1;0.009999999776;9.999999747e-05;50;50;1.254578829;0;0;0;0
857.650804;-0.0239585191;-0.02370407991;0.0008201611927;-14.54882813;0;1;1;1;0.01171875;7.006492322e-45;1;0.009999999776;9.999999747e-05;50;50;1.224053741;0;0;0;0
857.651854;-0.0239585191;-0.02370407991;0.0008201611927;-14.54882813;0;1;1;1;0.01171875;7.006492322e-45;1;0.009999999776;9.999999747e-05;50;50;1.22283268;0;0;0;0
857.652904;-0.0239585191;-0.02370407991;0.0008201611927;-14.54882813;0;1;1;1;0.01171875;7.006492322e-45;1;0.009999999776;9.999999747e-05;50;50;1.220390677;0;0;0;0
857.653954;-0.0239585191;-0.02370407991;0.0008201611927;-14.54882813;0;1;1;1;0.01171875;7.006492322e-45;1;0.009999999776;9.999999747e-05;50;50;1.215506673;0;0;0;0
857.655004;-0.0239585191;-0.02370407991;0.0008201611927;-14.54882813;0;1;1;1;0.01171875;7.006492322e-45;1;0.009999999776;9.999999747e-05;50;50;1.213675261;0;0;0;0
857.656054;-0.0239585191;-0.02370407991;0.0008201611927;-14.54882813;0;1;1;1;0.01171875;7.006492322e-45;1;0.009999999776;9.999999747e-05;50;50;1.22344327;0;0;0;0
857.657104;-0.0239585191;-0.02370407991;0.0008201611927;-14.54882813;0;1;1;1;0.01171875;7.006492322e-45;1;0.009999999776;9.999999747e-05;50;50;1.254578829;0;0;0;0
857.657804;-0.0239585191;-0.02370407991;0.0008201611927;-14.54882813;0;1;1;1;0.01171875;7.006492322e-45;1;0.009999999776;9.999999747e-05;50;50;1.239316225;0;0;0;0
857.658854;-0.0239585191;-0.02370407991;0.0008201611927;-14.54882813;0;1;1;1;0.01171875;7.006492322e-45;1;0.009999999776;9.999999747e-05;50;50;1.241758227;0;0;0;0
857.659904;-0.0239585191;-0.02370407991;0.0008201611927;-14.54882813;0;1;1;1;0.01171875;7.006492322e-45;1;0.009999999776;9.999999747e-05;50;50;1.235042691;0;0;0;0
857.660954;-0.0239585191;-0.02370407991;0.0008201611927;-14.54882813;0;1;1;1;0.01171875;7.006492322e-45;1;0.009999999776;9.999999747e-05;50;50;1.228327274;0;0;0;0
857.662004;-0.0239585191;-0.02370407991;0.0008201611927;-14.54882813;0;1;1;1;0.01171875;7.006492322e-45;1;0.009999999776;9.999999747e-05;50;50;1.230158687;0;0;0;0
857.663054;-0.0239585191;-0.02370407991;0.0008201611927;-14.54882813;0;1;1;1;0.01171875;7.006492322e-45;1;0.009999999776;9.999999747e-05;50;50;1.228327274;0;0;0;0
857.664104;-0.0239585191;-0.02370407991;0.0008201611927;-14.54882813;0;1;1;1;0.01171875;7.006492322e-45;1;0.009999999776;9.999999747e-05;50;50;1.216117263;0;0;0;0
857.664804;-0.0239585191;-0.02370407991;0.0008201611927;-14.54882813;0;1;1;1;0.01171875;7.006492322e-45;1;0.009999999776;9.999999747e-05;50;50;1.276556849;0;0;0;0
857.665854;-0.0239585191;-0.02370407991;0.0008201611927;-14.54882813;0;1;1;1;0.01171875;7.006492322e-45;1;0.009999999776;9.999999747e-05;50;50;1.235653281;0;0;0;0
857.666904;-0.0239585191;-0.02370407991;0.0008201611927;-14.54882813;0;1;1;1;0.01171875;7.006492322e-45;1;0.009999999776;9.999999747e-05;50;50;1.23382175;0;0;0;0
857.667954;-0.0239585191;-0.02370407991;0.0008201611927;-14.54882813;0;1;1;1;0.01171875;7.006492322e-45;1;0.009999999776;9.999999747e-05;50;50;1.235042691;0;0;0;0
857.669004;-0.0239585191;-0.02370407991;0.0008201611927;-14.54882813;0;1;1;1;0.01171875;7.006492322e-45;1;0.009999999776;9.999999747e-05;50;50;1.23382175;0;0;0;0
857.670054;-0.0239585191;-0.02370407991;0.0008201611927;-14.54882813;0;1;1;1;0.01171875;7.006492322e-45;1;0.009999999776;9.999999747e-05;50;50;1.229548216;0;0;0;0
857.670754;-0.0239585191;-0.02370407991;0.0008201611927;-14.54882813;0;1;1;1;0.01171875;7.006492322e-45;1;0.009999999776;9.999999747e-05;50;50;1.230158687;0;0;0;0
857.671804;-0.0239585191;-0.02370407991;0.0008201611927;-14.54882813;0;1;1;1;0.01171875;7.006492322e-45;1;0.009999999776;9.999999747e-05;50;50;1.217948675;0;0;0;0
857.672854;-0.0239585191;-0.02370407991;0.0008201611927;-14.54882813;0;1;1;1;0.01171875;7.006492322e-45;1;0.009999999776;9.999999747e-05;50;50;1.194749713;0;0;0;0
857.673904;-0.0239585191;-0.02370407991;0.0008201611927;-14.54882813;0;1;1;1;0.01171875;7.006492322e-45;1;0.009999999776;9.999999747e-05;50;50;1.217338204;0;0;0;0
857.674954;-0.0239585191;-0.02370407991;0.0008201611927;-14.54882813;0;1;1;1;0.01171875;7.006492322e-45;1;0.009999999776;9.999999747e-05;50;50;1.232600689;0;0;0;0
857.676004;-0.0239585191;-0.02370407991;0.0008201611927;-14.54882813;0;1;1;1;0.01171875;7.006492322e-45;1;0.009999999776;9.999999747e-05;50;50;1.239926696;0;0;0;0
857.677054;-0.0239585191;-0.02370407991;0.0008201611927;-14.54882813;0;1;1;1;0.01171875;7.006492322e-45;1;0.009999999776;9.999999747e-05;50;50;1.23443222;0;0;0;0
857.677754;-0.0239585191;-0.02370407991;0.0008201611927;-14.54882813;0;1;1;1;0.01171875;7.006492322e-45;1;0.009999999776;9.999999747e-05;50;50;1.221611738;0;0;0;0
857.678804;-0.0239585191;-0.02370407991;0.0008201611927;-14.54882813;0;1;1;1;0.01171875;7.006492322e-45;1;0.009999999776;9.999999747e-05;50;50;1.221001267;0;0;0;0
857.679854;-0.0239585191;-0.02370407991;0.0008201611927;-14.54882813;0;1;1;1;0.01171875;7.006492322e-45;1;0.009999999776;9.999999747e-05;50;50;1.232600689;0;0;0;0
857.680904;-0.0239585191;-0.02370407991;0.0008201611927;-14.54882813;0;1;1;1;0.01171875;7.006492322e-45;1;0.009999999776;9.999999747e-05;50;50;1.23382175;0;0;0;0
857.681954;-0.0239585191;-0.02370407991;0.0008201611927;-14.54882813;0;1;1;1;0.01171875;7.006492322e-45;1;0.009999999776;9.999999747e-05;50;50;1.276556849;0;0;0;0
857.683004;-0.0239585191;-0.02370407991;0.0008201611927;-14.54882813;0;1;1;1;0.01171875;7.006492322e-45;1;0.009999999776;9.999999747e-05;50;50;1.269230843;0;0;0;0
857.684054;-0.0239585191;-0.02370407991;0.0008201611927;-14.54882813;0;1;1;1;0.01171875;7.006492322e-45;1;0.009999999776;9.999999747e-05;50;50;1.258241892;0;0;0;0
857.684754;-0.0239585191;-0.02370407991;0.0008201611927;-14.54882813;0;1;1;1;0.01171875;7.006492322e-45;1;0.009999999776;9.999999747e-05;50;50;1.231379747;0;0;0;0
857.685804;-0.0239585191;-0.02370407991;0.0008201611927;-14.54882813;0;1;1;1;0.01171875;7.006492322e-45;1;0.009999999776;9.999999747e-05;50;50;1.230158687;0;0;0;0
857.686854;-0.0239585191;-0.02370407991;0.0008201611927;-14.54882813;0;1;1;1;0.01171875;7.006492322e-45;1;0.009999999776;9.999999747e-05;50;50;1.227106214;0;0;0;0
857.687904;-0.0239585191;-0.02370407991;0.0008201611927;-14.54882813;0;1;1;1;0.01171875;7.006492322e-45;1;0.009999999776;9.999999747e-05;50;50;1.216727734;0;0;0;0
857.688954;-0.0239585191;-0.02370407991;0.0008201611927;-14.54882813;0;1;1;1;0.01171875;7.006492322e-45;1;0.009999999776;9.999999747e-05;50;50;1.214896202;0;0;0;0
857.690004;-0.0239585191;-0.02370407991;0.0008201611927;-14.54882813;0;1;1;1;0.01171875;7.006492322e-45;1;0.009999999776;9.999999747e-05;50;50;1.242368698;0;0;0;0
857.690704;-0.0239585191;-0.02370407991;0.0008201611927;-14.54882813;0;1;1;1;0.01171875;7.006492322e-45;1;0.009999999776;9.999999747e-05;50;50;1.243587613;0;0;0;0
857.691754;-0.0239585191;-0.02370407991;0.0008201611927;-14.54882813;0;1;1;1;0.01171875;7.006492322e-45;1;0.009999999776;9.999999747e-05;50;50;1.232600689;0;0;0;0
857.692804;-0.0239585191;-0.02370407991;0.0008201611927;-14.54882813;0;1;1;1;0.01171875;7.006492322e-45;1;0.009999999776;9.999999747e-05;50;50;1.232600689;0;0;0;0
857.693854;-0.0239585191;-0.02370407991;0.0008201611927;-14.54882813;0;1;1;1;0.01171875;7.006492322e-45;1;0.009999999776;9.999999747e-05;50;50;1.226495743;0;0;0;0
857.694904;-0.0239585191;-0.02370407991;0.0008201611927;-14.54882813;0;1;1;1;0.01171875;7.006492322e-45;1;0.009999999776;9.999999747e-05;50;50;1.220390677;0;0;0;0
857.695954;-0.0239585191;-0.02370407991;0.0008201611927;-14.54882813;0;1;1;1;0.01171875;7.006492322e-45;1;0.009999999776;9.999999747e-05;50;50;1.221611738;0;0;0;0
857.697004;-0.0239585191;-0.02370407991;0.0008201611927;-14.54882813;0;1;1;1;0.01171875;7.006492322e-45;1;0.009999999776;9.999999747e-05;50;50;1.219780207;0;0;0;0
857.697704;-0.0239585191;-0.02370407991;0.0008201611927;-14.54882813;0;1;1;1;0.01171875;7.006492322e-45;1;0.009999999776;9.999999747e-05;50;50;1.165445685;0;0;0;0
857.698754;-0.0239585191;-0.02370407991;0.0008201611927;-14.54882813;0;1;1;1;0.01171875;7.006492322e-45;1;0.009999999776;9.999999747e-05;50;50;1.17032969;0;0;0;0
857.699804;-0.0239585191;-0.02370407991;0.0008201611927;-14.54882813;0;1;1;1;0.01171875;7.006492322e-45;1;0.009999999776;9.999999747e-05;50;50;1.239926696;0;0;0;0
857.700854;-0.0239585191;-0.02370407991;0.0008201611927;-14.54882813;0;1;1;1;0.01171875;7.006492322e-45;1;0.009999999776;9.999999747e-05;50;50;1.241147757;0;0;0;0
857.701904;-0.0239585191;-0.02370407991;0.0008201611927;-14.54882813;0;1;1;1;0.01171875;7.006492322e-45;1;0.009999999776;9.999999747e-05;50;50;1.24420023;0;0;0;0
857.702954;-0.0239585191;-0.02370407991;0.0008201611927;-14.54882813;0;1;1;1;0.01171875;7.006492322e-45;1;0.009999999776;9.999999747e-05;50;50;1.238705754;0;0;0;0
857.704004;-0.0239585191;-0.02370407991;0.0008201611927;-14.54882813;0;1;1;1;0.01171875;7.006492322e-45;1;0.009999999776;9.999999747e-05;50;50;1.23443222;0;0;0;0
857.704704;-0.0239585191;-0.02370407991;0.0008201611927;-14.54882813;0;1;1;1;0.01171875;7.006492322e-45;1;0.009999999776;9.999999747e-05;50;50;1.242368698;0;0;0;0
857.705754;-0.0239585191;-0.02370407991;0.0008201611927;-14.54882813;0;1;1;1;0.01171875;7.006492322e-45;1;0.009999999776;9.999999747e-05;50;50;1.253968358;0;0;0;0
857.706804;-0.0239585191;-0.02370407991;0.0008201611927;-14.54882813;0;1;1;1;0.01171875;7.006492322e-45;1;0.009999999776;9.999999747e-05;50;50;1.239316225;0;0;0;0
857.707854;-0.0239585191;-0.02370407991;0.0008201611927;-14.54882813;0;1;1;1;0.01171875;7.006492322e-45;1;0.009999999776;9.999999747e-05;50;50;1.27777791;0;0;0;0
857.708904;-0.0239585191;-0.02370407991;0.0008201611927;-14.54882813;0;1;1;1;0.01171875;7.006492322e-45;1;0.009999999776;9.999999747e-05;50;50;1.232600689;0;0;0;0
857.709954;-0.0239585191;-0.02370407991;0.0008201611927;-14.54882813;0;1;1;1;0.01171875;7.006492322e-45;1;0.009999999776;9.999999747e-05;50;50;1.233211279;0;0;0;0
857.711004;-0.0239585191;-0.02370407991;0.0008201611927;-14.54882813;0;1;1;1;0.01171875;7.006492322e-45;1;0.009999999776;9.999999747e-05;50;50;1.233211279;0;0;0;0
857.711704;-0.0239585191;-0.02370407991;0.0008201611927;-14.54882813;0;1;1;1;0.01171875;7.006492322e-45;1;0.009999999776;9.999999747e-05;50;50;1.213675261;0;0;0;0
857.712754;-0.0239585191;-0.02370407991;0.0008201611927;-14.54882813;0;1;1;1;0.01171875;7.006492322e-45;1;0.009999999776;9.999999747e-05;50;50;1.213675261;0;0;0;0
857.713804;-0.0239585191;-0.02370407991;0.0008201611927;-14.54882813;0;1;1;1;0.01171875;7.006492322e-45;1;0.009999999776;9.999999747e-05;50;50;1.211843729;0;0;0;0
857.714854;-0.0239585191;-0.02370407991;0.0008201611927;-14.54882813;0;1;1;1;0.01171875;7.006492322e-45;1;0.009999999776;9.999999747e-05;50;50;1.161782622;0;0;0;0
857.715904;-0.0239585191;-0.02370407991;0.0008201611927;-14.54882813;0;1;1;1;0.01171875;7.006492322e-45;1;0.009999999776;9.999999747e-05;50;50;1.235042691;0;0;0;0
857.716954;-0.0239585191;-0.02370407991;0.0008201611927;-14.54882813;0;1;1;1;0.01171875;7.006492322e-45;1;0.009999999776;9.999999747e-05;50;50;1.156288147;0;0;0;0
857.717654;-0.0239585191;-0.02370407991;0.0008201611927;-14.54882813;0;1;1;1;0.01171875;7.006492322e-45;1;0.009999999776;9.999999747e-05;50;50;1.233211279;0;0;0;0
857.718704;-0.0239585191;-0.02370407991;0.0008201611927;-14.54882813;0;1;1;1;0.01171875;7.006492322e-45;1;0.009999999776;9.999999747e-05;50;50;1.23443222;0;0;0;0
857.719754;-0.0239585191;-0.02370407991;0.0008201611927;-14.54882813;0;1;1;1;0.01171875;7.006492322e-45;1;0.009999999776;9.999999747e-05;50;50;1.230769277;0;0;0;0
857.720804;-0.0239585191;-0.02370407991;0.0008201611927;-14.54882813;0;1;1;1;0.01171875;7.006492322e-45;1;0.009999999776;9.999999747e-05;50;50;1.230158687;0;0;0;0
857.721854;-0.0239585191;-0.02370407991;0.0008201611927;-14.54882813;0;1;1;1;0.01171875;7.006492322e-45;1;0.009999999776;9.999999747e-05;50;50;1.221611738;0;0;0;0
857.722904;-0.0239585191;-0.02370407991;0.0008201611927;-14.54882813;0;1;1;1;0.01171875;7.006492322e-45;1;0.009999999776;9.999999747e-05;50;50;1.246031761;0;0;0;0
857.723954;-0.0239585191;-0.02370407991;0.0008201611927;-14.54882813;0;1;1;1;0.01171875;7.006492322e-45;1;0.009999999776;9.999999747e-05;50;50;1.268620372;0;0;0;0
857.724654;-0.0239585191;-0.02370407991;0.0008201611927;-14.54882813;0;1;1;1;0.01171875;7.006492322e-45;1;0.009999999776;9.999999747e-05;50;50;1.243589759;0;0;0;0
857.725704;-0.0239585191;-0.02370407991;0.0008201611927;-14.54882813;0;1;1;1;0.01171875;7.006492322e-45;1;0.009999999776;9.999999747e-05;50;50;1.240537286;0;0;0;0
857.726754;-0.0239585191;-0.02370407991;0.0008201611927;-14.54882813;0;1;1;1;0.01171875;7.006492322e-45;1;0.009999999776;9.999999747e-05;50;50;1.236874223;0;0;0;0
857.727804;-0.0239585191;-0.02370407991;0.0008201611927;-14.54882813;0;1;1;1;0.01171875;7.006492322e-45;1;0.009999999776;9.999999747e-05;50;50;1.227716684;0;0;0;0
857.728854;-0.0239585191;-0.02370407991;0.0008201611927;-14.54882813;0;1;1;1;0.01171875;7.006492322e-45;1;0.009999999776;9.999999747e-05;50;50;1.227716684;0;0;0;0
857.729904;-0.0239585191;-0.02370407991;0.0008201611927;-14.54882813;0;1;1;1;0.01171875;7.006492322e-45;1;0.009999999776;9.999999747e-05;50;50;1.224053741;0;0;0;0
857.730954;-0.0239585191;-0.02370407991;0.0008201611927;-14.54882813;0;1;1;1;0.01171875;7.006492322e-45;1;0.009999999776;9.999999747e-05;50;50;1.217948675;0;0;0;0
857.731654;-0.0239585191;-0.02370407991;0.0008201611927;-14.54882813;0;1;1;1;0.01171875;7.006492322e-45;1;0.009999999776;9.999999747e-05;50;50;1.263736367;0;0;0;0
857.732704;-0.0239585191;-0.02370407991;0.0008201611927;-14.54882813;0;1;1;1;0.01171875;7.006492322e-45;1;0.009999999776;9.999999747e-05;50;50;1.262515306;0;0;0;0
857.733754;-0.0239585191;-0.02370407991;0.0008201611927;-14.54882813;0;1;1;1;0.01171875;7.006492322e-45;1;0.009999999776;9.999999747e-05;50;50;1.198412657;0;0;0;0
857.734804;-0.0239585191;-0.02370407991;0.0008201611927;-14.54882813;0;1;1;1;0.01171875;7.006492322e-45;1;0.009999999776;9.999999747e-05;50;50;1.236263752;0;0;0;0
857.735854;-0.0239585191;-0.02370407991;0.0008201611927;-14.54882813;0;1;1;1;0.01171875;7.006492322e-45;1;0.009999999776;9.999999747e-05;50;50;1.23443222;0;0;0;0
857.736904;-0.0239585191;-0.02370407991;0.0008201611927;-14.54882813;0;1;1;1;0.01171875;7.006492322e-45;1;0.009999999776;9.999999747e-05;50;50;1.236263752;0;0;0;0
857.737954;-0.0239585191;-0.02370407991;0.0008201611927;-14.54882813;0;1;1;1;0.01171875;7.006492322e-45;1;0.009999999776;9.999999747e-05;50;50;1.231379747;0;0;0;0
857.738654;-0.0239585191;-0.02370407991;0.0008201611927;-14.54882813;0;1;1;1;0.01171875;7.006492322e-45;1;0.009999999776;9.999999747e-05;50;50;1.195970654;0;0;0;0
857.739704;-0.0239585191;-0.02370407991;0.0008201611927;-14.54882813;0;1;1;1;0.01171875;7.006492322e-45;1;0.009999999776;9.999999747e-05;50;50;1.232600689;0;0;0;0
857.740754;-0.0239585191;-0.02370407991;0.0008201611927;-14.54882813;0;1;1;1;0.01171875;7.006492322e-45;1;0.009999999776;9.999999747e-05;50;50;1.175213695;0;0;0;0
857.741804;-0.0239585191;-0.02370407991;0.0008201611927;-14.54882813;0;1;1;1;0.01171875;7.006492322e-45;1;0.009999999776;9.999999747e-05;50;50;1.189865708;0;0;0;0
857.742854;-0.0239585191;-0.02370407991;0.0008201611927;-14.54882813;0;1;1;1;0.01171875;7.006492322e-45;1;0.009999999776;9.999999747e-05;50;50;1.24542129;0;0;0;0
857.743904;-0.0239585191;-0.02370407991;0.0008201611927;-14.54882813;0;1;1;1;0.01171875;7.006492322e-45;1;0.009999999776;9.999999747e-05;50;50;1.240537286;0;0;0;0
857.744604;-0.0239585191;-0.02370407991;0.0008201611927;-14.54882813;0;1;1;1;0.01171875;7.006492322e-45;1;0.009999999776;9.999999747e-05;50;50;1.228327274;0;0;0;0
857.745654;-0.0239585191;-0.02370407991;0.0008201611927;-14.54882813;0;1;1;1;0.01171875;7.006492322e-45;1;0.009999999776;9.999999747e-05;50;50;1.224053741;0;0;0;0
857.746704;-0.0239585191;-0.02370407991;0.0008201611927;-14.54882813;0;1;1;1;0.01171875;7.006492322e-45;1;0.009999999776;9.999999747e-05;50;50;1.225885272;0;0;0;0
857.747754;-0.0239585191;-0.02370407991;0.0008201611927;-14.54882813;0;1;1;1;0.01171875;7.006492322e-45;1;0.009999999776;9.999999747e-05;50;50;1.268009901;0;0;0;0
857.748804;-0.0239585191;-0.02370407991;0.0008201611927;-14.54882813;0;1;1;1;0.01171875;7.006492322e-45;1;0.009999999776;9.999999747e-05;50;50;1.230158687;0;0;0;0
857.749854;-0.0239585191;-0.02370407991;0.0008201611927;-14.54882813;0;1;1;1;0.01171875;7.006492322e-45;1;0.009999999776;9.999999747e-05;50;50;1.24420023;0;0;0;0
857.750904;-0.0239585191;-0.02370407991;0.0008201611927;-14.54882813;0;1;1;1;0.01171875;7.006492322e-45;1;0.009999999776;9.999999747e-05;50;50;1.170940161;0;0;0;0
857.751604;-0.0239585191;-0.02370407991;0.0008201611927;-14.54882813;0;1;1;1;0.01171875;7.006492322e-45;1;0.009999999776;9.999999747e-05;50;50;1.228327274;0;0;0;0
857.752654;-0.0239585191;-0.02370407991;0.0008201611927;-14.54882813;0;1;1;1;0.01171875;7.006492322e-45;1;0.009999999776;9.999999747e-05;50;50;1.22344327;0;0;0;0
857.753704;-0.0239585191;-0.02370407991;0.0008201611927;-14.54882813;0;1;1;1;0.01171875;7.006492322e-45;1;0.009999999776;9.999999747e-05;50;50;1.221611738;0;0;0;0
857.754754;-0.0239585191;-0.02370407991;0.0008201611927;-14.54882813;0;1;1;1;0.01171875;7.006492322e-45;1;0.009999999776;9.999999747e-05;50;50;1.216117263;0;0;0;0
857.755804;-0.0239585191;-0.02370407991;0.0008201611927;-14.54882813;0;1;1;1;0.01171875;7.006492322e-45;1;0.009999999776;9.999999747e-05;50;50;1.213675261;0;0;0;0
857.756854;-0.0239585191;-0.02370407991;0.0008201611927;-14.54882813;0;1;1;1;0.01171875;7.006492322e-45;1;0.009999999776;9.999999747e-05;50;50;1.210622668;0;0;0;0
857.757904;-0.0239585191;-0.02370407991;0.0008201611927;-14.54882813;0;1;1;1;0.01171875;7.006492322e-45;1;0.009999999776;9.999999747e-05;50;50;1.260073304;0;0;0;0
857.758604;-0.0239585191;-0.02370407991;0.0008201611927;-14.54882813;0;1;1;1;0.01171875;7.006492322e-45;1;0.009999999776;9.999999747e-05;50;50;1.2448107;0;0;0;0
857.759654;-0.0239585191;-0.02370407991;0.0008201611927;-14.54882813;0;1;1;1;0.01171875;7.006492322e-45;1;0.009999999776;9.999999747e-05;50;50;1.238095284;0;0;0;0
857.760704;-0.0239585191;-0.02370407991;0.0008201611927;-14.54882813;0;1;1;1;0.01171875;7.006492322e-45;1;0.009999999776;9.999999747e-05;50;50;1.23382175;0;0;0;0
857.761754;-0.0239585191;-0.02370407991;0.0008201611927;-14.54882813;0;1;1;1;0.01171875;7.006492322e-45;1;0.009999999776;9.999999747e-05;50;50;1.235653281;0;0;0;0
857.762804;-0.0239585191;-0.02370407991;0.0008201611927;-14.54882813;0;1;1;1;0.01171875;7.006492322e-45;1;0.009999999776;9.999999747e-05;50;50;1.233211279;0;0;0;0
857.763854;-0.0239585191;-0.02370407991;0.0008201611927;-14.54882813;0;1;1;1;0.01171875;7.006492322e-45;1;0.009999999776;9.999999747e-05;50;50;1.227716684;0;0;0;0
857.764904;-0.0239585191;-0.02370407991;0.0008201611927;-14.54882813;0;1;1;1;0.01171875;7.006492322e-45;1;0.009999999776;9.999999747e-05;50;50;1.222222209;0;0;0;0
857.765604;-0.0239585191;-0.02370407991;0.0008201611927;-14.54882813;0;1;1;1;0.01171875;7.006492322e-45;1;0.009999999776;9.999999747e-05;50;50;1.2448107;0;0;0;0
857.766654;-0.0239585191;-0.02370407991;0.0008201611927;-14.54882813;0;1;1;1;0.01171875;7.006492322e-45;1;0.009999999776;9.999999747e-05;50;50;1.20207572;0;0;0;0
857.767704;-0.0239585191;-0.02370407991;0.0008201611927;-14.54882813;0;1;1;1;0.01171875;7.006492322e-45;1;0.009999999776;9.999999747e-05;50;50;1.239926696;0;0;0;0
857.768754;-0.0239585191;-0.02370407991;0.0008201611927;-14.54882813;0;1;1;1;0.01171875;7.006492322e-45;1;0.009999999776;9.999999747e-05;50;50;1.233211279;0;0;0;0
857.769804;-0.0239585191;-0.02370407991;0.0008201611927;-14.54882813;0;1;1;1;0.01171875;7.006492322e-45;1;0.009999999776;9.999999747e-05;50;50;1.231990218;0;0;0;0
857.770854;-0.0239585191;-0.02370407991;0.0008201611927;-14.54882813;0;1;1;1;0.01171875;7.006492322e-45;1;0.009999999776;9.999999747e-05;50;50;1.224664211;0;0;0;0
857.771554;-0.0239585191;-0.02370407991;0.0008201611927;-14.54882813;0;1;1;1;0.01171875;7.006492322e-45;1;0.009999999776;9.999999747e-05;50;50;1.2124542;0;0;0;0
857.772604;-0.0239585191;-0.02370407991;0.0008201611927;-14.54882813;0;1;1;1;0.01171875;7.006492322e-45;1;0.009999999776;9.999999747e-05;50;50;1.246031761;0;0;0;0
857.773654;-0.0239585191;-0.02370407991;0.0008201611927;-14.54882813;0;1;1;1;0.01171875;7.006492322e-45;1;0.009999999776;9.999999747e-05;50;50;1.199633718;0;0;0;0
857.774704;-0.0239585191;-0.02370407991;0.0008201611927;-14.54882813;0;1;1;1;0.01171875;7.006492322e-45;1;0.009999999776;9.999999747e-05;50;50;1.24542129;0;0;0;0
857.775754;-0.0239585191;-0.02370407991;0.0008201611927;-14.54882813;0;1;1;1;0.01171875;7.006492322e-45;1;0.009999999776;9.999999747e-05;50;50;1.172161222;0;0;0;0
857.776804;-0.0239585191;-0.02370407991;0.0008201611927;-14.54882813;0;1;1;1;0.01171875;7.006492322e-45;1;0.009999999776;9.999999747e-05;50;50;1.167887688;0;0;0;0
857.777854;-0.0239585191;-0.02370407991;0.0008201611927;-14.54882813;0;1;1;1;0.01171875;7.006492322e-45;1;0.009999999776;9.999999747e-05;50;50;1.241758227;0;0;0;0
857.778554;-0.0239585191;-0.02370407991;0.0008201611927;-14.54882813;0;1;1;1;0.01171875;7.006492322e-45;1;0.009999999776;9.999999747e-05;50;50;1.226495743;0;0;0;0
857.779604;-0.0239585191;-0.02370407991;0.0008201611927;-14.54882813;0;1;1;1;0.01171875;7.006492322e-45;1;0.009999999776;9.999999747e-05;50;50;1.226495743;0;0;0;0
857.780654;-0.0239585191;-0.02370407991;0.0008201611927;-14.54882813;0;1;1;1;0.01171875;7.006492322e-45;1;0.009999999776;9.999999747e-05;50;50;1.225274682;0;0;0;0
857.781704;-0.0239585191;-0.02370407991;0.0008201611927;-14.54882813;0;1;1;1;0.01171875;7.006492322e-45;1;0.009999999776;9.999999747e-05;50;50;1.269841313;0;0;0;0
857.782754;-0.0239585191;-0.02370407991;0.0008201611927;-14.54882813;0;1;1;1;0.01171875;7.006492322e-45;1;0.009999999776;9.999999747e-05;50;50;1.281440854;0;0;0;0
857.783804;-0.0239585191;-0.02370407991;0.0008201611927;-14.54882813;0;1;1;1;0.01171875;7.006492322e-45;1;0.009999999776;9.999999747e-05;50;50;1.241147757;0;0;0;0
857.784854;-0.0239585191;-0.02370407991;0.0008201611927;-14.54882813;0;1;1;1;0.01171875;7.006492322e-45;1;0.009999999776;9.999999747e-05;50;50;1.280830383;0;0;0;0
857.785554;-0.0239585191;-0.02370407991;0.0008201611927;-14.54882813;0;1;1;1;0.01171875;7.006492322e-45;1;0.009999999776;9.999999747e-05;50;50;1.23443222;0;0;0;0
857.786604;-0.0239585191;-0.02370407991;0.0008201611927;-14.54882813;0;1;1;1;0.01171875;7.006492322e-45;1;0.009999999776;9.999999747e-05;50;50;1.229548216;0;0;0;0
857.787654;-0.0239585191;-0.02370407991;0.0008201611927;-14.54882813;0;1;1;1;0.01171875;7.006492322e-45;1;0.009999999776;9.999999747e-05;50;50;1.220390677;0;0;0;0
857.788704;-0.0239585191;-0.02370407991;0.0008201611927;-14.54882813;0;1;1;1;0.01171875;7.006492322e-45;1;0.009999999776;9.999999747e-05;50;50;1.216727734;0;0;0;0
857.789754;-0.0239585191;-0.02370407991;0.0008201611927;-14.54882813;0;1;1;1;0.01171875;7.006492322e-45;1;0.009999999776;9.999999747e-05;50;50;1.217948675;0;0;0;0
857.790804;-0.0239585191;-0.02370407991;0.0008201611927;-14.54882813;0;1;1;1;0.01171875;7.006492322e-45;1;0.009999999776;9.999999747e-05;50;50;1.211843729;0;0;0;0
857.791854;-0.0239585191;-0.02370407991;0.0008201611927;-14.54882813;0;1;1;1;0.01171875;7.006492322e-45;1;0.009999999776;9.999999747e-05;50;50;1.253968358;0;0;0;0
857.792554;-0.0239585191;-0.02370407991;0.0008201611927;-14.54882813;0;1;1;1;0.01171875;7.006492322e-45;1;0.009999999776;9.999999747e-05;50;50;1.23382175;0;0;0;0
857.793604;-0.0239585191;-0.02370407991;0.0008201611927;-14.54882813;0;1;1;1;0.01171875;7.006492322e-45;1;0.009999999776;9.999999747e-05;50;50;1.228327274;0;0;0;0
857.794654;-0.0239585191;-0.02370407991;0.0008201611927;-14.54882813;0;1;1;1;0.01171875;7.006492322e-45;1;0.009999999776;9.999999747e-05;50;50;1.227716684;0;0;0;0
857.795704;-0.0239585191;-0.02370407991;0.0008201611927;-14.54882813;0;1;1;1;0.01171875;7.006492322e-45;1;0.009999999776;9.999999747e-05;50;50;1.232600689;0;0;0;0
857.796754;-0.0239585191;-0.02370407991;0.0008201611927;-14.54882813;0;1;1;1;0.01171875;7.006492322e-45;1;0.009999999776;9.999999747e-05;50;50;1.229548216;0;0;0;0
857.797804;-0.0239585191;-0.02370407991;0.0008201611927;-14.54882813;0;1;1;1;0.01171875;7.006492322e-45;1;0.009999999776;9.999999747e-05;50;50;1.226495743;0;0;0;0
857.798504;-0.0239585191;-0.02370407991;0.0008201611927;-14.54882813;0;1;1;1;0.01171875;7.006492322e-45;1;0.009999999776;9.999999747e-05;50;50;1.247252703;0;0;0;0
857.799554;-0.0239585191;-0.02370407991;0.0008201611927;-14.54882813;0;1;1;1;0.01171875;7.006492322e-45;1;0.009999999776;9.999999747e-05;50;50;1.284493327;0;0;0;0
857.800604;-0.0239585191;-0.02370407991;0.0008201611927;-14.54882813;0;1;1;1;0.01171875;7.006492322e-45;1;0.009999999776;9.999999747e-05;50;50;1.2448107;0;0;0;0
857.801654;-0.0239585191;-0.02370407991;0.0008201611927;-14.54882813;0;1;1;1;0.01171875;7.006492322e-45;1;0.009999999776;9.999999747e-05;50;50;1.2448107;0;0;0;0
857.802704;-0.0239585191;-0.02370407991;0.0008201611927;-14.54882813;0;1;1;1;0.01171875;7.006492322e-45;1;0.009999999776;9.999999747e-05;50;50;1.241147757;0;0;0;0
857.803754;-0.0239585191;-0.02370407991;0.0008201611927;-14.54882813;0;1;1;1;0.01171875;7.006492322e-45;1;0.009999999776;9.999999747e-05;50;50;1.235653281;0;0;0;0
857.804804;-0.0239585191;-0.02370407991;0.0008201611927;-14.54882813;0;1;1;1;0.01171875;7.006492322e-45;1;0.009999999776;9.999999747e-05;50;50;1.233211279;0;0;0;0
857.805504;-0.0239585191;-0.02370407991;0.0008201611927;-14.54882813;0;1;1;1;0.01171875;7.006492322e-45;1;0.009999999776;9.999999747e-05;50;50;1.253357887;0;0;0;0
857.806554;-0.0239585191;-0.02370407991;0.0008201611927;-14.54882813;0;1;1;1;0.01171875;7.006492322e-45;1;0.009999999776;9.999999747e-05;50;50;1.264957309;0;0;0;0
857.807604;-0.0239585191;-0.02370407991;0.0008201611927;-14.54882813;0;1;1;1;0.01171875;7.006492322e-45;1;0.009999999776;9.999999747e-05;50;50;1.203296661;0;0;0;0
857.808654;-0.0239585191;-0.02370407991;0.0008201611927;-14.54882813;0;1;1;1;0.01171875;7.006492322e-45;1;0.009999999776;9.999999747e-05;50;50;1.216117263;0;0;0;0
857.809704;-0.0239585191;-0.02370407991;0.0008201611927;-14.54882813;0;1;1;1;0.01171875;7.006492322e-45;1;0.009999999776;9.999999747e-05;50;50;1.274725318;0;0;0;0
857.810754;-0.0239585191;-0.02370407991;0.0008201611927;-14.54882813;0;1;1;1;0.01171875;7.006492322e-45;1;0.009999999776;9.999999747e-05;50;50;1.221001267;0;0;0;0
857.811804;-0.0239585191;-0.02370407991;0.0008201611927;-14.54882813;0;1;1;1;0.01171875;7.006492322e-45;1;0.009999999776;9.999999747e-05;50;50;1.237484694;0;0;0;0
857.812504;-0.0239585191;-0.02370407991;0.0008201611927;-14.54882813;0;1;1;1;0.01171875;7.006492322e-45;1;0.009999999776;9.999999747e-05;50;50;1.216117263;0;0;0;0
857.813554;-0.0239585191;-0.02370407991;0.0008201611927;-14.54882813;0;1;1;1;0.01171875;7.006492322e-45;1;0.009999999776;9.999999747e-05;50;50;1.215506673;0;0;0;0
857.814604;-0.0239585191;-0.02370407991;0.0008201611927;-14.54882813;0;1;1;1;0.01171875;7.006492322e-45;1;0.009999999776;9.999999747e-05;50;50;1.213064671;0;0;0;0
857.815654;-0.0239585191;-0.02370407991;0.0008201611927;-14.54882813;0;1;1;1;0.01171875;7.006492322e-45;1;0.009999999776;9.999999747e-05;50;50;1.236263752;0;0;0;0
857.816704;-0.0239585191;-0.02370407991;0.0008201611927;-14.54882813;0;1;1;1;0.01171875;7.006492322e-45;1;0.009999999776;9.999999747e-05;50;50;1.214896202;0;0;0;0
857.817754;-0.0239585191;-0.02370407991;0.0008201611927;-14.54882813;0;1;1;1;0.01171875;7.006492322e-45;1;0.009999999776;9.999999747e-05;50;50;1.220390677;0;0;0;0
857.818804;-0.0239585191;-0.02370407991;0.0008201611927;-14.54882813;0;1;1;1;0.01171875;7.006492322e-45;1;0.009999999776;9.999999747e-05;50;50;1.202686191;0;0;0;0
857.819504;-0.0239585191;-0.02370407991;0.0008201611927;-14.54882813;0;1;1;1;0.01171875;7.006492322e-45;1;0.009999999776;9.999999747e-05;50;50;1.23443222;0;0;0;0
857.820554;-0.0239585191;-0.02370407991;0.0008201611927;-14.54882813;0;1;1;1;0.01171875;7.006492322e-45;1;0.009999999776;9.999999747e-05;50;50;1.230158687;0;0;0;0
857.821604;-0.0239585191;-0.02370407991;0.0008201611927;-14.54882813;0;1;1;1;0.01171875;7.006492322e-45;1;0.009999999776;9.999999747e-05;50;50;1.225274682;0;0;0;0
857.822654;-0.0239585191;-0.02370407991;0.0008201611927;-14.54882813;0;1;1;1;0.01171875;7.006492322e-45;1;0.009999999776;9.999999747e-05;50;50;1.22283268;0;0;0;0
857.823704;-0.0239585191;-0.02370407991;0.0008201611927;-14.54882813;0;1;1;1;0.01171875;7.006492322e-45;1;0.009999999776;9.999999747e-05;50;50;1.220390677;0;0;0;0
857.824754;-0.0239585191;-0.02370407991;0.0008201611927;-14.54882813;0;1;1;1;0.01171875;7.006492322e-45;1;0.009999999776;9.999999747e-05;50;50;1.271062374;0;0;0;0
857.825454;-0.0239585191;-0.02370407991;0.0008201611927;-14.54882813;0;1;1;1;0.01171875;7.006492322e-45;1;0.009999999776;9.999999747e-05;50;50;1.241758227;0;0;0;0
857.826504;-0.0239585191;-0.02370407991;0.0008201611927;-14.54882813;0;1;1;1;0.01171875;7.006492322e-45;1;0.009999999776;9.999999747e-05;50;50;1.235042691;0;0;0;0
857.827554;-0.0239585191;-0.02370407991;0.0008201611927;-14.54882813;0;1;1;1;0.01171875;7.006492322e-45;1;0.009999999776;9.999999747e-05;50;50;1.227716684;0;0;0;0
857.828604;-0.0239585191;-0.02370407991;0.0008201611927;-14.54882813;0;1;1;1;0.01171875;7.006492322e-45;1;0.009999999776;9.999999747e-05;50;50;1.229548216;0;0;0;0
857.829654;-0.0239585191;-0.02370407991;0.0008201611927;-14.54882813;0;1;1;1;0.01171875;7.006492322e-45;1;0.009999999776;9.999999747e-05;50;50;1.227716684;0;0;0;0
857.830704;-0.0239585191;-0.02370407991;0.0008201611927;-14.54882813;0;1;1;1;0.01171875;7.006492322e-45;1;0.009999999776;9.999999747e-05;50;50;1.219780207;0;0;0;0
857.831754;-0.0239585191;-0.02370407991;0.0008201611927;-14.54882813;0;1;1;1;0.01171875;7.006492322e-45;1;0.009999999776;9.999999747e-05;50;50;1.216117263;0;0;0;0
857.832454;-0.0239585191;-0.02370407991;0.0008201611927;-14.54882813;0;1;1;1;0.01171875;7.006492322e-45;1;0.009999999776;9.999999747e-05;50;50;1.235653281;0;0;0;0
857.833504;-0.0239585191;-0.02370407991;0.0008201611927;-14.54882813;0;1;1;1;0.01171875;7.006492322e-45;1;0.009999999776;9.999999747e-05;50;50;1.267399311;0;0;0;0
857.834554;-0.0239585191;-0.02370407991;0.0008201611927;-14.54882813;0;1;1;1;0.01171875;7.006492322e-45;1;0.009999999776;9.999999747e-05;50;50;1.210622668;0;0;0;0
857.835604;-0.0239585191;-0.02370407991;0.0008201611927;-14.54882813;0;1;1;1;0.01171875;7.006492322e-45;1;0.009999999776;9.999999747e-05;50;50;1.239926696;0;0;0;0
857.836654;-0.0239585191;-0.02370407991;0.0008201611927;-14.54882813;0;1;1;1;0.01171875;7.006492322e-45;1;0.009999999776;9.999999747e-05;50;50;1.236263752;0;0;0;0
857.837704;-0.0239585191;-0.02370407991;0.0008201611927;-14.54882813;0;1;1;1;0.01171875;7.006492322e-45;1;0.009999999776;9.999999747e-05;50;50;1.23382175;0;0;0;0
857.838754;-0.0239585191;-0.02370407991;0.0008201611927;-14.54882813;0;1;1;1;0.01171875;7.006492322e-45;1;0.009999999776;9.999999747e-05;50;50;1.242368698;0;0;0;0
857.839454;-0.0239585191;-0.02370407991;0.0008201611927;-14.54882813;0;1;1;1;0.01171875;7.006492322e-45;1;0.009999999776;9.999999747e-05;50;50;1.263736367;0;0;0;0
857.840504;-0.0239585191;-0.02370407991;0.0008201611927;-14.54882813;0;1;1;1;0.01171875;7.006492322e-45;1;0.009999999776;9.999999747e-05;50;50;1.272893906;0;0;0;0
857.841554;-0.0239585191;-0.02370407991;0.0008201611927;-14.54882813;0;1;1;1;0.01171875;7.006492322e-45;1;0.009999999776;9.999999747e-05;50;50;1.206959724;0;0;0;0
857.842604;-0.0239585191;-0.02370407991;0.0008201611927;-14.54882813;0;1;1;1;0.01171875;7.006492322e-45;1;0.009999999776;9.999999747e-05;50;50;1.196581244;0;0;0;0
857.843654;-0.0239585191;-0.02370407991;0.0008201611927;-14.54882813;0;1;1;1;0.01171875;7.006492322e-45;1;0.009999999776;9.999999747e-05;50;50;1.258852363;0;0;0;0
857.844704;-0.0239585191;-0.02370407991;0.0008201611927;-14.54882813;0;1;1;1;0.01171875;7.006492322e-45;1;0.009999999776;9.999999747e-05;50;50;1.243589759;0;0;0;0
857.845754;-0.0239585191;-0.02370407991;0.0008201611927;-14.54882813;0;1;1;1;0.01171875;7.006492322e-45;1;0.009999999776;9.999999747e-05;50;50;1.236874223;0;0;0;0
857.846454;-0.0239585191;-0.02370407991;0.0008201611927;-14.54882813;0;1;1;1;0.01171875;7.006492322e-45;1;0.009999999776;9.999999747e-05;50;50;1.228937745;0;0;0;0
857.847504;-0.0239585191;-0.02370407991;0.0008201611927;-14.54882813;0;1;1;1;0.01171875;7.006492322e-45;1;0.009999999776;9.999999747e-05;50;50;1.218559265;0;0;0;0
857.848554;-0.0239585191;-0.02370407991;0.0008201611927;-14.54882813;0;1;1;1;0.01171875;7.006492322e-45;1;0.009999999776;9.999999747e-05;50;50;1.216117263;0;0;0;0
857.849604;-0.0239585191;-0.02370407991;0.0008201611927;-14.54882813;0;1;1;1;0.01171875;7.006492322e-45;1;0.009999999776;9.999999747e-05;50;50;1.242368698;0;0;0;0
857.850654;-0.0239585191;-0.02370407991;0.0008201611927;-14.54882813;0;1;1;1;0.01171875;7.006492322e-45;1;0.009999999776;9.999999747e-05;50;50;1.166056156;0;0;0;0
857.851704;-0.0239585191;-0.02370407991;0.0008201611927;-14.54882813;0;1;1;1;0.01171875;7.006492322e-45;1;0.009999999776;9.999999747e-05;50;50;1.166056156;0;0;0;0
857.852404;-0.0239585191;-0.02370407991;0.0008201611927;-14.54882813;0;1;1;1;0.01171875;7.006492322e-45;1;0.009999999776;9.999999747e-05;50;50;1.230158687;0;0;0;0
857.853454;-0.0239585191;-0.02370407991;0.0008201611927;-14.54882813;0;1;1;1;0.01171875;7.006492322e-45;1;0.009999999776;9.999999747e-05;50;50;1.225274682;0;0;0;0
857.854504;-0.0239585191;-0.02370407991;0.0008201611927;-14.54882813;0;1;1;1;0.01171875;7.006492322e-45;1;0.009999999776;9.999999747e-05;50;50;1.221611738;0;0;0;0
857.855554;-0.0239585191;-0.02370407991;0.0008201611927;-14.54882813;0;1;1;1;0.01171875;7.006492322e-45;1;0.009999999776;9.999999747e-05;50;50;1.218559265;0;0;0;0
857.856604;-0.0239585191;-0.02370407991;0.0008201611927;-14.54882813;0;1;1;1;0.01171875;7.006492322e-45;1;0.009999999776;9.999999747e-05;50;50;1.218559265;0;0;0;0
857.857654;-0.0239585191;-0.02370407991;0.0008201611927;-14.54882813;0;1;1;1;0.01171875;7.006492322e-45;1;0.009999999776;9.999999747e-05;50;50;1.221001267;0;0;0;0
857.858704;-0.0239585191;-0.02370407991;0.0008201611927;-14.54882813;0;1;1;1;0.01171875;7.006492322e-45;1;0.009999999776;9.999999747e-05;50;50;1.225274682;0;0;0;0
857.859404;-0.0239585191;-0.02370407991;0.0008201611927;-14.54882813;0;1;1;1;0.01171875;7.006492322e-45;1;0.009999999776;9.999999747e-05;50;50;1.242979288;0;0;0;0
857.860454;-0.0239585191;-0.02370407991;0.0008201611927;-14.54882813;0;1;1;1;0.01171875;7.006492322e-45;1;0.009999999776;9.999999747e-05;50;50;1.237484694;0;0;0;0
857.861504;-0.0239585191;-0.02370407991;0.0008201611927;-14.54882813;0;1;1;1;0.01171875;7.006492322e-45;1;0.009999999776;9.999999747e-05;50;50;1.241147757;0;0;0;0
857.862554;-0.0239585191;-0.02370407991;0.0008201611927;-14.54882813;0;1;1;1;0.01171875;7.006492322e-45;1;0.009999999776;9.999999747e-05;50;50;1.238095284;0;0;0;0
857.863604;-0.0239585191;-0.02370407991;0.0008201611927;-14.54882813;0;1;1;1;0.01171875;7.006492322e-45;1;0.009999999776;9.999999747e-05;50;50;1.231379747;0;0;0;0
857.864654;-0.0239585191;-0.02370407991;0.0008201611927;-14.54882813;0;1;1;1;0.01171875;7.006492322e-45;1;0.009999999776;9.999999747e-05;50;50;1.227716684;0;0;0;0
857.865704;-0.0239585191;-0.02370407991;0.0008201611927;-14.54882813;0;1;1;1;0.01171875;7.006492322e-45;1;0.009999999776;9.999999747e-05;50;50;1.22283268;0;0;0;0
857.866404;-0.0239585191;-0.02370407991;0.0008201611927;-14.54882813;0;1;1;1;0.01171875;7.006492322e-45;1;0.009999999776;9.999999747e-05;50;50;1.171550632;0;0;0;0
857.867454;-0.0239585191;-0.02370407991;0.0008201611927;-14.54882813;0;1;1;1;0.01171875;7.006492322e-45;1;0.009999999776;9.999999747e-05;50;50;1.280830383;0;0;0;0
857.868504;-0.0239585191;-0.02370407991;0.0008201611927;-14.54882813;0;1;1;1;0.01171875;7.006492322e-45;1;0.009999999776;9.999999747e-05;50;50;1.202686191;0;0;0;0
857.869554;-0.0239585191;-0.02370407991;0.0008201611927;-14.54882813;0;1;1;1;0.01171875;7.006492322e-45;1;0.009999999776;9.999999747e-05;50;50;1.235042691;0;0;0;0
857.870604;-0.0239585191;-0.02370407991;0.0008201611927;-14.54882813;0;1;1;1;0.01171875;7.006492322e-45;1;0.009999999776;9.999999747e-05;50;50;1.230158687;0;0;0;0
857.871654;-0.0239585191;-0.02370407991;0.0008201611927;-14.54882813;0;1;1;1;0.01171875;7.006492322e-45;1;0.009999999776;9.999999747e-05;50;50;1.225274682;0;0;0;0
857.872704;-0.0239585191;-0.02370407991;0.0008201611927;-14.54882813;0;1;1;1;0.01171875;7.006492322e-45;1;0.009999999776;9.999999747e-05;50;50;1.225885272;0;0;0;0
857.873404;-0.0239585191;-0.02370407991;0.0008201611927;-14.54882813;0;1;1;1;0.01171875;7.006492322e-45;1;0.009999999776;9.999999747e-05;50;50;1.205738664;0;0;0;0
857.874454;-0.0239585191;-0.02370407991;0.0008201611927;-14.54882813;0;1;1;1;0.01171875;7.006492322e-45;1;0.009999999776;9.999999747e-05;50;50;1.25579977;0;0;0;0
857.875504;-0.0239585191;-0.02370407991;0.0008201611927;-14.54882813;0;1;1;1;0.01171875;7.006492322e-45;1;0.009999999776;9.999999747e-05;50;50;1.26617837;0;0;0;0
857.876554;-0.0239585191;-0.02370407991;0.0008201611927;-14.54882813;0;1;1;1;0.01171875;7.006492322e-45;1;0.009999999776;9.999999747e-05;50;50;1.228937745;0;0;0;0
857.877604;-0.0239585191;-0.02370407991;0.0008201611927;-14.54882813;0;1;1;1;0.01171875;7.006492322e-45;1;0.009999999776;9.999999747e-05;50;50;1.209401727;0;0;0;0
857.878654;-0.0239585191;-0.02370407991;0.0008201611927;-14.54882813;0;1;1;1;0.01171875;7.006492322e-45;1;0.009999999776;9.999999747e-05;50;50;1.246642232;0;0;0;0
857.879354;-0.0239585191;-0.02370407991;0.0008201611927;-14.54882813;0;1;1;1;0.01171875;7.006492322e-45;1;0.009999999776;9.999999747e-05;50;50;1.230769277;0;0;0;0
857.880404;-0.0239585191;-0.02370407991;0.0008201611927;-14.54882813;0;1;1;1;0.01171875;7.006492322e-45;1;0.009999999776;9.999999747e-05;50;50;1.228937745;0;0;0;0
857.881454;-0.0239585191;-0.02370407991;0.0008201611927;-14.54882813;0;1;1;1;0.01171875;7.006492322e-45;1;0.009999999776;9.999999747e-05;50;50;1.22283268;0;0;0;0
857.882504;-0.0239585191;-0.02370407991;0.0008201611927;-14.54882813;0;1;1;1;0.01171875;7.006492322e-45;1;0.009999999776;9.999999747e-05;50;50;1.241758227;0;0;0;0
857.883554;-0.0239585191;-0.02370407991;0.0008201611927;-14.54882813;0;1;1;1;0.01171875;7.006492322e-45;1;0.009999999776;9.999999747e-05;50;50;1.178876638;0;0;0;0
857.884604;-0.0239585191;-0.02370407991;0.0008201611927;-14.54882813;0;1;1;1;0.01171875;7.006492322e-45;1;0.009999999776;9.999999747e-05;50;50;1.237484694;0;0;0;0
857.885654;-0.0239585191;-0.02370407991;0.0008201611927;-14.54882813;0;1;1;1;0.01171875;7.006492322e-45;1;0.009999999776;9.999999747e-05;50;50;1.274725318;0;0;0;0
857.886354;-0.0239585191;-0.02370407991;0.0008201611927;-14.54882813;0;1;1;1;0.01171875;7.006492322e-45;1;0.009999999776;9.999999747e-05;50;50;1.23382175;0;0;0;0
857.887404;-0.0239585191;-0.02370407991;0.0008201611927;-14.54882813;0;1;1;1;0.01171875;7.006492322e-45;1;0.009999999776;9.999999747e-05;50;50;1.225885272;0;0;0;0
857.888454;-0.0239585191;-0.02370407991;0.0008201611927;-14.54882813;0;1;1;1;0.01171875;7.006492322e-45;1;0.009999999776;9.999999747e-05;50;50;1.219780207;0;0;0;0
857.889504;-0.0239585191;-0.02370407991;0.0008201611927;-14.54882813;0;1;1;1;0.01171875;7.006492322e-45;1;0.009999999776;9.999999747e-05;50;50;1.219169736;0;0;0;0
857.890554;-0.0239585191;-0.02370407991;0.0008201611927;-14.54882813;0;1;1;1;0.01171875;7.006492322e-45;1;0.009999999776;9.999999747e-05;50;50;1.213675261;0;0;0;0
857.891604;-0.0239585191;-0.02370407991;0.0008201611927;-14.54882813;0;1;1;1;0.01171875;7.006492322e-45;1;0.009999999776;9.999999747e-05;50;50;1.210622668;0;0;0;0
857.892654;-0.0239585191;-0.02370407991;0.0008201611927;-14.54882813;0;1;1;1;0.01171875;7.006492322e-45;1;0.009999999776;9.999999747e-05;50;50;1.208180666;0;0;0;0
